wavelength,n
1e-15,3.2
1.25e-15,3.3
1.5e-15,3.5
1.8e-15,3.7
2e-15,3.9
2.5e-15,4.3
3e-15,4.7
3.5e-15,5.2
4e-15,5.5
4.5e-15,5.8
5e-15,6.05
5.5e-15,6.3
6e-15,6.6
6.5e-15,6.8
7e-15,7.1
7.5e-15,7.4
8e-15,7.6
