wavelength,k
4.43e-17,0.164
4.51e-17,0.173
4.59e-17,0.183
4.68e-17,0.195
4.77e-17,0.208
4.86e-17,0.223
4.96e-17,0.24
5.06e-17,0.25
5.17e-17,0.259
5.28e-17,0.268
5.39e-17,0.279
5.51e-17,0.297
5.64e-17,0.319
5.77e-17,0.34
5.9e-17,0.366
6.05e-17,0.392
6.2e-17,0.416
6.36e-17,0.44
6.53e-17,0.464
6.7e-17,0.492
6.89e-17,0.517
7.08e-17,0.528
7.29e-17,0.533
7.38e-17,0.534
7.51e-17,0.531
7.75e-17,0.524
8e-17,0.51
8.27e-17,0.5
8.55e-17,0.499
8.86e-17,0.468
9.18e-17,0.38
9.3e-17,0.36
9.54e-17,0.339
9.92e-17,0.318
1.033e-16,0.291
1.078e-16,0.251
1.1e-16,0.244
1.127e-16,0.239
1.14e-16,0.239
1.181e-16,0.244
1.21e-16,0.247
1.24e-16,0.224
1.272e-16,0.195
1.295e-16,0.174
1.305e-16,0.172
1.319e-16,0.18
1.333e-16,0.194
1.348e-16,0.213
1.362e-16,0.243
1.37e-16,0.271
1.378e-16,0.289
1.387e-16,0.334
1.393e-16,0.344
1.409e-16,0.382
1.425e-16,0.401
1.435e-16,0.4065
1.442e-16,0.405
1.45e-16,0.389
1.459e-16,0.377
1.468e-16,0.345
1.476e-16,0.332
1.48e-16,0.315
1.485e-16,0.298
1.494e-16,0.274
1.512e-16,0.228
1.531e-16,0.198
1.54e-16,0.172
1.55e-16,0.156
1.569e-16,0.11
1.58e-16,0.083
1.589e-16,0.058
1.61e-16,0.022
1.625e-16,0.01
1.648e-16,0.003
1.669e-16,0.001
1.692e-16,0.0003
1.713e-16,0.00011
1.737e-16,3e-05
1.757e-16,1e-05
1.779e-16,3e-06
1.802e-16,1e-06
1.809e-16,7e-07
1.821e-16,4e-07
1.833e-16,2e-07
1.843e-16,1e-07
1.85e-16,6.377e-08
1.86e-16,3.75e-08
1.87e-16,2.8e-08
1.88e-16,2.4e-08
1.89e-16,2.2e-08
1.9e-16,1.9e-08
1.91e-16,1.75e-08
1.93e-16,1.64e-08
1.95e-16,1.59e-08
2.1e-16,1.325e-08
2.5e-16,8.623e-09
3e-16,5.504e-09
3.5e-16,3.765e-09
4e-16,2.71e-09
4.1e-16,2.51e-09
4.2e-16,2.26e-09
4.3e-16,2.08e-09
4.4e-16,1.91e-09
4.5e-16,1.54e-09
4.6e-16,1.53e-09
4.7e-16,1.55e-09
4.8e-16,1.64e-09
4.9e-16,1.78e-09
5e-16,1.91e-09
5.1e-16,2.14e-09
5.2e-16,2.26e-09
5.3e-16,2.54e-09
5.4e-16,2.93e-09
5.5e-16,3.11e-09
5.6e-16,3.29e-09
5.7e-16,3.52e-09
5.8e-16,4.04e-09
5.9e-16,4.88e-09
6e-16,5.73e-09
6.1e-16,6.89e-09
6.2e-16,8.58e-09
6.3e-16,1.04e-08
6.4e-16,1.22e-08
6.5e-16,1.43e-08
6.6e-16,1.66e-08
6.7e-16,1.89e-08
6.8e-16,2.09e-08
6.9e-16,2.4e-08
7e-16,2.9e-08
7.1e-16,3.44e-08
7.2e-16,4.03e-08
7.3e-16,4.3e-08
7.4e-16,4.92e-08
7.5e-16,5.87e-08
7.6e-16,7.08e-08
7.7e-16,8.58e-08
7.8e-16,1.02e-07
7.9e-16,1.18e-07
8e-16,1.34e-07
8.1e-16,1.4e-07
8.2e-16,1.43e-07
8.3e-16,1.45e-07
8.4e-16,1.51e-07
8.5e-16,1.83e-07
8.6e-16,2.15e-07
8.7e-16,2.65e-07
8.8e-16,3.35e-07
8.9e-16,3.92e-07
9e-16,4.2e-07
9.1e-16,4.44e-07
9.2e-16,4.74e-07
9.3e-16,5.11e-07
9.4e-16,5.53e-07
9.5e-16,6.02e-07
9.6e-16,7.55e-07
9.7e-16,9.26e-07
9.8e-16,1.12e-06
9.9e-16,1.33e-06
1e-15,1.62e-06
1.01e-15,2e-06
1.02e-15,2.25e-06
1.03e-15,2.33e-06
1.04e-15,2.33e-06
1.05e-15,2.17e-06
1.06e-15,1.96e-06
1.07e-15,1.81e-06
1.08e-15,1.74e-06
1.09e-15,1.73e-06
1.1e-15,1.7e-06
1.11e-15,1.76e-06
1.12e-15,1.82e-06
1.13e-15,2.04e-06
1.14e-15,2.25e-06
1.15e-15,2.29e-06
1.16e-15,3.04e-06
1.17e-15,3.84e-06
1.18e-15,4.77e-06
1.19e-15,5.76e-06
1.2e-15,6.71e-06
1.21e-15,8.66e-06
1.22e-15,1.02e-05
1.23e-15,1.13e-05
1.24e-15,1.22e-05
1.25e-15,1.29e-05
1.26e-15,1.32e-05
1.27e-15,1.35e-05
1.28e-15,1.33e-05
1.29e-15,1.32e-05
1.3e-15,1.32e-05
1.31e-15,1.31e-05
1.32e-15,1.32e-05
1.33e-15,1.32e-05
1.34e-15,1.34e-05
1.35e-15,1.39e-05
1.36e-15,1.42e-05
1.37e-15,1.48e-05
1.38e-15,1.58e-05
1.39e-15,1.74e-05
1.4e-15,1.98e-05
1.41e-15,2.5e-05
1.42e-15,5.4e-05
1.43e-15,0.000104
1.44e-15,0.000203
1.449e-15,0.0002708
1.46e-15,0.0003511
1.471e-15,0.0004299
1.481e-15,0.0005181
1.493e-15,0.0005855
1.504e-15,0.0005899
1.515e-15,0.0005635
1.527e-15,0.000548
1.538e-15,0.0005266
1.563e-15,0.0004394
1.587e-15,0.0003701
1.613e-15,0.0003372
1.65e-15,0.000241
1.68e-15,0.000189
1.7e-15,0.000166
1.73e-15,0.000145
1.76e-15,0.000128
1.8e-15,0.000103
1.83e-15,8.6e-05
1.84e-15,8.22e-05
1.85e-15,8.03e-05
1.855e-15,8.5e-05
1.86e-15,9.9e-05
1.87e-15,0.00015
1.89e-15,0.000295
1.905e-15,0.0004687
1.923e-15,0.0007615
1.942e-15,0.00101
1.961e-15,0.001313
1.98e-15,0.001539
2e-15,0.001588
2.02e-15,0.00154
2.041e-15,0.001412
2.062e-15,0.001244
2.083e-15,0.001068
2.105e-15,0.0008414
2.13e-15,0.000565
2.15e-15,0.000432
2.17e-15,0.00035
2.19e-15,0.000287
2.22e-15,0.000221
2.24e-15,0.000203
2.245e-15,0.000201
2.25e-15,0.000203
2.26e-15,0.000214
2.27e-15,0.000232
2.29e-15,0.000289
2.31e-15,0.000381
2.33e-15,0.000462
2.35e-15,0.000548
2.37e-15,0.000618
2.39e-15,0.00068
2.41e-15,0.00073
2.43e-15,0.000782
2.46e-15,0.000848
2.5e-15,0.000925
2.52e-15,0.00092
2.55e-15,0.000892
2.565e-15,0.00087
2.58e-15,0.00089
2.59e-15,0.00093
2.6e-15,0.00101
2.62e-15,0.00135
2.675e-15,0.00342
2.725e-15,0.00792
2.778e-15,0.02
2.817e-15,0.038
2.833e-15,0.052
2.849e-15,0.068
2.865e-15,0.0923
2.882e-15,0.127
2.899e-15,0.169
2.915e-15,0.221
2.933e-15,0.276
2.95e-15,0.312
2.967e-15,0.347
2.985e-15,0.388
3.003e-15,0.438
3.021e-15,0.493
3.04e-15,0.554
3.058e-15,0.612
3.077e-15,0.625
3.096e-15,0.593
3.115e-15,0.539
3.135e-15,0.491
3.155e-15,0.438
3.175e-15,0.372
3.195e-15,0.3
3.215e-15,0.238
3.236e-15,0.193
3.257e-15,0.158
3.279e-15,0.121
3.3e-15,0.103
3.322e-15,0.0836
3.345e-15,0.0668
3.367e-15,0.054
3.39e-15,0.0422
3.413e-15,0.0342
3.436e-15,0.0274
3.46e-15,0.022
3.484e-15,0.0186
3.509e-15,0.0152
3.534e-15,0.0126
3.559e-15,0.0106
3.624e-15,0.00802
3.732e-15,0.00685
3.775e-15,0.0066
3.847e-15,0.00696
3.969e-15,0.00916
4.099e-15,0.0111
4.239e-15,0.0145
4.348e-15,0.02
4.387e-15,0.023
4.444e-15,0.026
4.505e-15,0.029
4.547e-15,0.0293
4.56e-15,0.03
4.58e-15,0.0285
4.719e-15,0.0173
4.904e-15,0.0129
5e-15,0.012
5.1e-15,0.0125
5.2e-15,0.0134
5.263e-15,0.014
5.4e-15,0.0175
5.556e-15,0.024
5.714e-15,0.035
5.747e-15,0.038
5.78e-15,0.042
5.814e-15,0.046
5.848e-15,0.052
5.882e-15,0.057
6.061e-15,0.069
6.135e-15,0.07
6.25e-15,0.067
6.289e-15,0.065
6.329e-15,0.064
6.369e-15,0.062
6.41e-15,0.059
6.452e-15,0.057
6.494e-15,0.056
6.579e-15,0.055
6.667e-15,0.057
6.757e-15,0.058
6.897e-15,0.057
7.042e-15,0.055
7.143e-15,0.055
7.246e-15,0.054
7.353e-15,0.052
7.463e-15,0.052
7.576e-15,0.052
7.692e-15,0.052
7.812e-15,0.05
7.937e-15,0.047
8.065e-15,0.043
8.197e-15,0.039
8.333e-15,0.037
8.475e-15,0.039
8.696e-15,0.04
8.929e-15,0.042
9.091e-15,0.044
9.259e-15,0.045
9.524e-15,0.046
9.804e-15,0.047
1e-14,0.051
1.02e-14,0.065
1.031e-14,0.075
1.042e-14,0.088
1.053e-14,0.108
1.064e-14,0.134
1.075e-14,0.168
1.087e-14,0.204
1.1e-14,0.248
1.111e-14,0.28
1.136e-14,0.341
1.163e-14,0.379
1.19e-14,0.409
1.22e-14,0.422
1.25e-14,0.422
1.282e-14,0.403
1.299e-14,0.389
1.316e-14,0.374
1.333e-14,0.354
1.351e-14,0.335
1.37e-14,0.315
1.389e-14,0.294
1.408e-14,0.271
1.429e-14,0.246
1.471e-14,0.198
1.515e-14,0.164
1.538e-14,0.152
1.563e-14,0.142
1.613e-14,0.128
1.639e-14,0.125
1.667e-14,0.123
1.695e-14,0.116
1.724e-14,0.107
1.818e-14,0.079
1.887e-14,0.072
1.923e-14,0.076
1.961e-14,0.075
2e-14,0.067
2.041e-14,0.055
2.083e-14,0.045
2.222e-14,0.029
2.26e-14,0.0275
2.305e-14,0.027
2.36e-14,0.0273
2.46e-14,0.0289
2.5e-14,0.03
2.6e-14,0.034
2.857e-14,0.053
3.1e-14,0.0755
3.333e-14,0.106
3.448e-14,0.135
3.564e-14,0.1761
3.7e-14,0.2229
3.824e-14,0.2746
3.96e-14,0.328
4.114e-14,0.3906
4.276e-14,0.4642
4.358e-14,0.5247
4.458e-14,0.5731
4.55e-14,0.6362
4.615e-14,0.6839
4.671e-14,0.7091
4.736e-14,0.679
4.8e-14,0.625
4.878e-14,0.5654
5.003e-14,0.5433
5.128e-14,0.5292
5.275e-14,0.507
5.35e-14,0.4883
5.424e-14,0.4707
5.5e-14,0.4203
5.574e-14,0.3771
5.64e-14,0.3376
5.7e-14,0.3056
5.746e-14,0.2835
5.84e-14,0.317
5.929e-14,0.3517
6e-14,0.3902
6.1e-14,0.4509
6.125e-14,0.4671
6.25e-14,0.4779
6.378e-14,0.489
6.467e-14,0.4899
6.558e-14,0.4873
6.655e-14,0.4766
6.76e-14,0.4508
6.9e-14,0.4193
7.053e-14,0.388
7.3e-14,0.3433
7.5e-14,0.3118
7.629e-14,0.2935
8e-14,0.235
8.297e-14,0.1981
8.5e-14,0.1865
8.68e-14,0.1771
9.08e-14,0.162
9.517e-14,0.149
1e-13,0.139
1.2e-13,0.12
1.5e-13,0.0962
1.67e-13,0.083
