wavelength,k
7.3e-07,6.25
8e-07,6.48
9e-07,7.28
1e-06,6.94
1.1e-06,6.6
1.15e-06,6.53
1.2e-06,6.51
1.3e-06,6.79
1.4e-06,7.36
1.5e-06,8.04
1.7e-06,9.34
2e-06,11.4
2.5e-06,14.6
3e-06,18.0
4e-06,24.2
5e-06,29.7
6e-06,35.5
7e-06,41.4
8e-06,47.0
9e-06,51.7
1e-05,55.7
1.1e-05,59.8
1.2e-05,63.8
