wavelength,n
7.3e-16,2.22
8e-16,2.25
9e-16,3.04
1e-15,3.97
1.1e-15,4.05
1.15e-15,3.81
1.2e-15,3.5
1.3e-15,2.98
1.4e-15,2.48
1.5e-15,2.08
1.7e-15,1.74
2e-15,1.64
2.5e-15,1.69
3e-15,1.88
4e-15,2.46
5e-15,3.75
6e-15,4.97
7e-15,6.51
8e-15,8.17
9e-15,10.0
1e-14,12.4
1.1e-14,15.7
1.2e-14,18.2
