wavelength,k
3.5e-16,1.82548546
3.55e-16,1.83535961
3.6e-16,1.84726409
3.65e-16,1.86089403
3.7e-16,1.87588739
3.75e-16,1.89182495
3.8e-16,1.90823356
3.85e-16,1.92459334
3.9e-16,1.94034972
3.95e-16,1.95493084
4e-16,1.96777102
4.05e-16,1.97833993
4.1e-16,1.98617711
4.15e-16,1.99092954
4.2e-16,1.99238964
4.25e-16,1.99052906
4.3e-16,1.98552384
4.35e-16,1.97776608
4.4e-16,1.96785935
4.45e-16,1.95659674
4.5e-16,1.94492363
4.55e-16,1.93388882
4.6e-16,1.92458945
4.65e-16,1.91811417
4.7e-16,1.91548828
4.75e-16,1.91762291
4.8e-16,1.92526902
4.85e-16,1.93897789
4.9e-16,1.95907056
4.95e-16,1.98562082
5e-16,2.01845696
5.05e-16,2.05718532
5.1e-16,2.10123442
5.15e-16,2.14991337
5.2e-16,2.20247437
5.25e-16,2.25816943
5.3e-16,2.31629445
5.35e-16,2.3762177
5.4e-16,2.43739405
5.45e-16,2.4993678
5.5e-16,2.56176802
5.55e-16,2.62429968
5.6e-16,2.68673297
5.65e-16,2.74889254
5.7e-16,2.81064748
5.75e-16,2.87190259
5.8e-16,2.93259091
5.85e-16,2.99266764
5.9e-16,3.05210511
5.95e-16,3.11088884
6e-16,3.16901434
6.05e-16,3.22648463
6.1e-16,3.28330834
6.15e-16,3.33949809
6.2e-16,3.39506942
6.25e-16,3.45003981
6.3e-16,3.50442799
6.35e-16,3.55825345
6.4e-16,3.61153601
6.45e-16,3.66429548
6.5e-16,3.71655149
6.55e-16,3.76832332
6.6e-16,3.81962973
6.65e-16,3.87048895
6.7e-16,3.92091857
6.75e-16,3.97093552
6.8e-16,4.02055607
6.85e-16,4.06979583
6.9e-16,4.11866972
6.95e-16,4.16719202
7e-16,4.21537636
7.05e-16,4.26323575
7.1e-16,4.3107826
7.15e-16,4.35802876
7.2e-16,4.40498551
7.25e-16,4.45166361
7.3e-16,4.49807333
7.35e-16,4.54422445
7.4e-16,4.59012631
7.45e-16,4.63578781
7.5e-16,4.68121743
7.55e-16,4.72642327
7.6e-16,4.77141309
7.65e-16,4.81619425
7.7e-16,4.86077382
7.75e-16,4.90515853
7.8e-16,4.94935484
7.85e-16,4.99336891
7.9e-16,5.03720663
7.95e-16,5.08087364
8e-16,5.12437535
8.05e-16,5.16771693
8.1e-16,5.21090334
8.15e-16,5.25393934
8.2e-16,5.29682947
8.25e-16,5.33957812
8.3e-16,5.38218947
8.35e-16,5.42466757
8.4e-16,5.46701627
8.45e-16,5.50923929
8.5e-16,5.55134022
8.55e-16,5.59332248
8.6e-16,5.63518938
8.65e-16,5.67694411
8.7e-16,5.71858972
8.75e-16,5.76012917
8.8e-16,5.80156529
8.85e-16,5.84290082
8.9e-16,5.88413841
8.95e-16,5.92528059
9e-16,5.96632982
9.05e-16,6.00728848
9.1e-16,6.04815884
9.15e-16,6.08894311
9.2e-16,6.12964343
9.25e-16,6.17026186
9.3e-16,6.21080038
9.35e-16,6.25126093
9.4e-16,6.29164536
9.45e-16,6.33195547
9.5e-16,6.37219301
9.55e-16,6.41235966
9.6e-16,6.45245705
9.65e-16,6.49248676
9.7e-16,6.53245033
9.75e-16,6.57234923
9.8e-16,6.61218491
9.85e-16,6.65195875
9.9e-16,6.6916721
9.95e-16,6.73132629
1e-15,6.77092257
1.005e-15,6.81046218
1.01e-15,6.84994631
1.015e-15,6.88937613
1.02e-15,6.92875277
1.025e-15,6.96807731
1.03e-15,7.00735082
1.035e-15,7.04657434
1.04e-15,7.08574887
1.045e-15,7.12487538
1.05e-15,7.16395482
1.055e-15,7.20298812
1.06e-15,7.24197617
1.065e-15,7.28091984
1.07e-15,7.31981998
1.075e-15,7.35867742
1.08e-15,7.39749297
1.085e-15,7.43626739
1.09e-15,7.47500147
1.095e-15,7.51369592
1.1e-15,7.55235149
1.105e-15,7.59096887
1.11e-15,7.62954875
1.115e-15,7.6680918
1.12e-15,7.70659866
1.125e-15,7.74506997
1.13e-15,7.78350636
1.135e-15,7.82190841
1.14e-15,7.86027673
1.145e-15,7.89861188
1.15e-15,7.93691443
1.155e-15,7.97518492
1.16e-15,8.01342388
1.165e-15,8.05163183
1.17e-15,8.08980928
1.175e-15,8.12795673
1.18e-15,8.16607466
1.185e-15,8.20416354
1.19e-15,8.24222383
1.195e-15,8.28025599
1.2e-15,8.31826045
1.205e-15,8.35623764
1.21e-15,8.39418799
1.215e-15,8.4321119
1.22e-15,8.47000978
1.225e-15,8.50788201
1.23e-15,8.54572899
1.235e-15,8.58355108
1.24e-15,8.62134865
1.245e-15,8.65912207
1.25e-15,8.69687167
1.255e-15,8.73459781
1.26e-15,8.77230082
1.265e-15,8.80998103
1.27e-15,8.84763876
1.275e-15,8.88527433
1.28e-15,8.92288803
1.285e-15,8.96048018
1.29e-15,8.99805107
1.295e-15,9.03560098
1.3e-15,9.0731302
1.305e-15,9.11063901
1.31e-15,9.14812768
1.315e-15,9.18559647
1.32e-15,9.22304565
1.325e-15,9.26047546
1.33e-15,9.29788616
1.335e-15,9.33527799
1.34e-15,9.37265119
1.345e-15,9.410006
1.35e-15,9.44734265
1.355e-15,9.48466137
1.36e-15,9.52196236
1.365e-15,9.55924586
1.37e-15,9.59651207
1.375e-15,9.63376121
1.38e-15,9.67099347
1.385e-15,9.70820906
1.39e-15,9.74540818
1.395e-15,9.78259101
1.4e-15,9.81975775
1.405e-15,9.85690859
1.41e-15,9.8940437
1.415e-15,9.93116326
1.42e-15,9.96826746
1.425e-15,10.00535646
1.43e-15,10.04243042
1.435e-15,10.07948953
1.44e-15,10.11653394
1.445e-15,10.1535638
1.45e-15,10.19057929
1.455e-15,10.22758054
1.46e-15,10.26456772
1.465e-15,10.30154097
1.47e-15,10.33850044
1.475e-15,10.37532646
1.48e-15,10.41208459
1.485e-15,10.44882688
1.49e-15,10.48555347
1.495e-15,10.52226446
1.5e-15,10.55895999
1.505e-15,10.59564015
1.51e-15,10.63230508
1.515e-15,10.66895487
1.52e-15,10.70558964
1.525e-15,10.74220949
1.53e-15,10.77881453
1.535e-15,10.81540487
1.54e-15,10.8519806
1.545e-15,10.88854181
1.55e-15,10.92508862
1.555e-15,10.96162111
1.56e-15,10.99813938
1.565e-15,11.03464352
1.57e-15,11.07113361
1.575e-15,11.10760976
1.58e-15,11.14407204
1.585e-15,11.18052053
1.59e-15,11.21695533
1.595e-15,11.25337652
1.6e-15,11.28978416
1.605e-15,11.32617835
1.61e-15,11.36255916
1.615e-15,11.39892667
1.62e-15,11.43528095
1.625e-15,11.47162207
1.63e-15,11.50795011
1.635e-15,11.54426513
1.64e-15,11.58056721
1.645e-15,11.61685642
1.65e-15,11.65313281
1.655e-15,11.68939645
1.66e-15,11.72564742
1.665e-15,11.76188577
1.67e-15,11.79811156
1.675e-15,11.83432485
1.68e-15,11.87052571
1.685e-15,11.90671419
1.69e-15,11.94289035
1.695e-15,11.97905425
1.7e-15,12.01520594
1.705e-15,12.05134547
1.71e-15,12.0874729
1.715e-15,12.12358828
1.72e-15,12.15969167
1.725e-15,12.1957831
1.73e-15,12.23186264
1.735e-15,12.26793033
1.74e-15,12.30398622
1.745e-15,12.34003035
1.75e-15,12.37606277
1.755e-15,12.41208353
1.76e-15,12.44809267
1.765e-15,12.48409023
1.77e-15,12.52007626
1.775e-15,12.55605079
1.78e-15,12.59201387
1.785e-15,12.62796554
1.79e-15,12.66390585
1.795e-15,12.69983481
1.8e-15,12.73575249
