wavelength,y_bar
3.6e-07,1.3398e-08
3.61e-07,2.0294e-08
3.62e-07,3.056e-08
3.63e-07,4.574e-08
3.64e-07,6.805e-08
3.65e-07,1.0065e-07
3.66e-07,1.4798e-07
3.67e-07,2.1627e-07
3.68e-07,3.142e-07
3.69e-07,4.537e-07
3.7e-07,6.511e-07
3.71e-07,9.288e-07
3.72e-07,1.3175e-06
3.73e-07,1.8572e-06
3.74e-07,2.602e-06
3.75e-07,3.625e-06
3.76e-07,5.019e-06
3.77e-07,6.907e-06
3.78e-07,9.449e-06
3.79e-07,1.2848e-05
3.8e-07,1.7364e-05
3.81e-07,2.3327e-05
3.82e-07,3.115e-05
3.83e-07,4.135e-05
3.84e-07,5.456e-05
3.85e-07,7.156e-05
3.86e-07,9.33e-05
3.87e-07,0.00012087
3.88e-07,0.00015564
3.89e-07,0.0001992
3.9e-07,0.0002534
3.91e-07,0.0003202
3.92e-07,0.0004024
3.93e-07,0.0005023
3.94e-07,0.0006232
3.95e-07,0.0007685
3.96e-07,0.0009417
3.97e-07,0.0011478
3.98e-07,0.0013903
3.99e-07,0.001674
4e-07,0.0020044
4.01e-07,0.002386
4.02e-07,0.002822
4.03e-07,0.003319
4.04e-07,0.00388
4.05e-07,0.004509
4.06e-07,0.005209
4.07e-07,0.005985
4.08e-07,0.006833
4.09e-07,0.007757
4.1e-07,0.008756
4.11e-07,0.009816
4.12e-07,0.010918
4.13e-07,0.012058
4.14e-07,0.013237
4.15e-07,0.014456
4.16e-07,0.015717
4.17e-07,0.017025
4.18e-07,0.018399
4.19e-07,0.019848
4.2e-07,0.021391
4.21e-07,0.022992
4.22e-07,0.024598
4.23e-07,0.026213
4.24e-07,0.027841
4.25e-07,0.029497
4.26e-07,0.031195
4.27e-07,0.032927
4.28e-07,0.034738
4.29e-07,0.036654
4.3e-07,0.038676
4.31e-07,0.040792
4.32e-07,0.042946
4.33e-07,0.045114
4.34e-07,0.047333
4.35e-07,0.049602
4.36e-07,0.051934
4.37e-07,0.054337
4.38e-07,0.056822
4.39e-07,0.059399
4.4e-07,0.062077
4.41e-07,0.064737
4.42e-07,0.067285
4.43e-07,0.069764
4.44e-07,0.072218
4.45e-07,0.074704
4.46e-07,0.077272
4.47e-07,0.079979
4.48e-07,0.082874
4.49e-07,0.086
4.5e-07,0.089456
4.51e-07,0.092947
4.52e-07,0.096275
4.53e-07,0.099535
4.54e-07,0.102829
4.55e-07,0.106256
4.56e-07,0.109901
4.57e-07,0.113835
4.58e-07,0.118167
4.59e-07,0.122932
4.6e-07,0.128201
4.61e-07,0.133457
4.62e-07,0.138323
4.63e-07,0.143042
4.64e-07,0.147787
4.65e-07,0.152761
4.66e-07,0.158102
4.67e-07,0.163941
4.68e-07,0.170362
4.69e-07,0.177425
4.7e-07,0.18519
4.71e-07,0.193025
4.72e-07,0.200313
4.73e-07,0.207156
4.74e-07,0.213644
4.75e-07,0.21994
4.76e-07,0.22617
4.77e-07,0.232467
4.78e-07,0.239025
4.79e-07,0.245997
4.8e-07,0.253589
4.81e-07,0.261876
4.82e-07,0.270643
4.83e-07,0.279645
4.84e-07,0.288694
4.85e-07,0.297665
4.86e-07,0.306469
4.87e-07,0.315035
4.88e-07,0.323335
4.89e-07,0.331366
4.9e-07,0.339133
4.91e-07,0.34786
4.92e-07,0.358326
4.93e-07,0.370001
4.94e-07,0.382464
4.95e-07,0.395379
4.96e-07,0.408482
4.97e-07,0.421588
4.98e-07,0.434619
4.99e-07,0.447601
5e-07,0.460777
5.01e-07,0.47434
5.02e-07,0.4882
5.03e-07,0.50234
5.04e-07,0.51674
5.05e-07,0.53136
5.06e-07,0.54619
5.07e-07,0.56118
5.08e-07,0.57629
5.09e-07,0.5915
5.1e-07,0.606741
5.11e-07,0.62215
5.12e-07,0.63783
5.13e-07,0.65371
5.14e-07,0.66968
5.15e-07,0.68566
5.16e-07,0.70155
5.17e-07,0.71723
5.18e-07,0.73257
5.19e-07,0.74746
5.2e-07,0.761757
5.21e-07,0.77534
5.22e-07,0.78822
5.23e-07,0.80046
5.24e-07,0.81214
5.25e-07,0.82333
5.26e-07,0.83412
5.27e-07,0.8446
5.28e-07,0.85487
5.29e-07,0.86504
5.3e-07,0.875211
5.31e-07,0.88537
5.32e-07,0.89537
5.33e-07,0.90515
5.34e-07,0.91465
5.35e-07,0.92381
5.36e-07,0.93255
5.37e-07,0.94081
5.38e-07,0.94852
5.39e-07,0.9556
5.4e-07,0.961988
5.41e-07,0.96754
5.42e-07,0.97223
5.43e-07,0.97617
5.44e-07,0.97946
5.45e-07,0.9822
5.46e-07,0.98452
5.47e-07,0.98652
5.48e-07,0.98832
5.49e-07,0.99002
5.5e-07,0.991761
5.51e-07,0.99353
5.52e-07,0.99523
5.53e-07,0.99677
5.54e-07,0.99809
5.55e-07,0.99911
5.56e-07,0.99977
5.57e-07,1.0
5.58e-07,0.99971
5.59e-07,0.99885
5.6e-07,0.99734
5.61e-07,0.99526
5.62e-07,0.99274
5.63e-07,0.98975
5.64e-07,0.9863
5.65e-07,0.98238
5.66e-07,0.97798
5.67e-07,0.97311
5.68e-07,0.96774
5.69e-07,0.96189
5.7e-07,0.955552
5.71e-07,0.948601
5.72e-07,0.940981
5.73e-07,0.932798
5.74e-07,0.924158
5.75e-07,0.915175
5.76e-07,0.905954
5.77e-07,0.896608
5.78e-07,0.887249
5.79e-07,0.877986
5.8e-07,0.868934
5.81e-07,0.860164
5.82e-07,0.851519
5.83e-07,0.842963
5.84e-07,0.834393
5.85e-07,0.825623
5.86e-07,0.816764
5.87e-07,0.807544
5.88e-07,0.797947
5.89e-07,0.787893
5.9e-07,0.777405
5.91e-07,0.76649
5.92e-07,0.755309
5.93e-07,0.743845
5.94e-07,0.73219
5.95e-07,0.720353
5.96e-07,0.708281
5.97e-07,0.696055
5.98e-07,0.683621
5.99e-07,0.671048
6e-07,0.658341
6.01e-07,0.645545
6.02e-07,0.632718
6.03e-07,0.619815
6.04e-07,0.606887
6.05e-07,0.593878
6.06e-07,0.580781
6.07e-07,0.567653
6.08e-07,0.55449
6.09e-07,0.541228
6.1e-07,0.527963
6.11e-07,0.514634
6.12e-07,0.501363
6.13e-07,0.488124
6.14e-07,0.474935
6.15e-07,0.461834
6.16e-07,0.448823
6.17e-07,0.435917
6.18e-07,0.423153
6.19e-07,0.410526
6.2e-07,0.398057
6.21e-07,0.385835
6.22e-07,0.373951
6.23e-07,0.362311
6.24e-07,0.350863
6.25e-07,0.339554
6.26e-07,0.328309
6.27e-07,0.317118
6.28e-07,0.305936
6.29e-07,0.294737
6.3e-07,0.283493
6.31e-07,0.272222
6.32e-07,0.26099
6.33e-07,0.249877
6.34e-07,0.238946
6.35e-07,0.228254
6.36e-07,0.217853
6.37e-07,0.20778
6.38e-07,0.198072
6.39e-07,0.188748
6.4e-07,0.179828
6.41e-07,0.171285
6.42e-07,0.163059
6.43e-07,0.155151
6.44e-07,0.147535
6.45e-07,0.140211
6.46e-07,0.13317
6.47e-07,0.1264
6.48e-07,0.119892
6.49e-07,0.11364
6.5e-07,0.107633
6.51e-07,0.10187
6.52e-07,0.096347
6.53e-07,0.091063
6.54e-07,0.08601
6.55e-07,0.081187
6.56e-07,0.076583
6.57e-07,0.072198
6.58e-07,0.068024
6.59e-07,0.064052
6.6e-07,0.060281
6.61e-07,0.056697
6.62e-07,0.053292
6.63e-07,0.050059
6.64e-07,0.046998
6.65e-07,0.044096
6.66e-07,0.041345
6.67e-07,0.0387507
6.68e-07,0.0362978
6.69e-07,0.0339832
6.7e-07,0.0318004
6.71e-07,0.0297395
6.72e-07,0.0277918
6.73e-07,0.0259551
6.74e-07,0.0242263
6.75e-07,0.0226017
6.76e-07,0.0210779
6.77e-07,0.0196505
6.78e-07,0.0183153
6.79e-07,0.0170686
6.8e-07,0.0159051
6.81e-07,0.0148183
6.82e-07,0.0138008
6.83e-07,0.0128495
6.84e-07,0.0119607
6.85e-07,0.0111303
6.86e-07,0.0103555
6.87e-07,0.0096332
6.88e-07,0.0089599
6.89e-07,0.0083324
6.9e-07,0.0077488
6.91e-07,0.0072046
6.92e-07,0.0066975
6.93e-07,0.0062251
6.94e-07,0.005785
6.95e-07,0.0053751
6.96e-07,0.0049941
6.97e-07,0.0046392
6.98e-07,0.0043093
6.99e-07,0.0040028
7e-07,0.00371774
7.01e-07,0.00345262
7.02e-07,0.00320583
7.03e-07,0.00297623
7.04e-07,0.00276281
7.05e-07,0.00256456
7.06e-07,0.00238048
7.07e-07,0.00220971
7.08e-07,0.00205132
7.09e-07,0.00190449
7.1e-07,0.00176847
7.11e-07,0.00164236
7.12e-07,0.00152535
7.13e-07,0.00141672
7.14e-07,0.00131595
7.15e-07,0.00122239
7.16e-07,0.00113555
7.17e-07,0.00105494
7.18e-07,0.00098014
7.19e-07,0.00091066
7.2e-07,0.00084619
7.21e-07,0.00078629
7.22e-07,0.00073068
7.23e-07,0.00067899
7.24e-07,0.00063101
7.25e-07,0.00058644
7.26e-07,0.00054511
7.27e-07,0.00050672
7.28e-07,0.00047111
7.29e-07,0.00043805
7.3e-07,0.00040741
7.31e-07,0.000378962
7.32e-07,0.000352543
7.33e-07,0.000328001
7.34e-07,0.000305208
7.35e-07,0.000284041
7.36e-07,0.000264375
7.37e-07,0.000246109
7.38e-07,0.000229143
7.39e-07,0.000213376
7.4e-07,0.00019873
7.41e-07,0.000185115
7.42e-07,0.000172454
7.43e-07,0.000160678
7.44e-07,0.00014973
7.45e-07,0.00013955
7.46e-07,0.000130086
7.47e-07,0.00012129
7.48e-07,0.000113106
7.49e-07,0.000105501
7.5e-07,9.8428e-05
7.51e-07,9.1853e-05
7.52e-07,8.5738e-05
7.53e-07,8.0048e-05
7.54e-07,7.4751e-05
7.55e-07,6.9819e-05
7.56e-07,6.5222e-05
7.57e-07,6.0939e-05
7.58e-07,5.6942e-05
7.59e-07,5.3217e-05
7.6e-07,4.9737e-05
7.61e-07,4.6491e-05
7.62e-07,4.3464e-05
7.63e-07,4.0635e-05
7.64e-07,3.8e-05
7.65e-07,3.55405e-05
7.66e-07,3.32448e-05
7.67e-07,3.11006e-05
7.68e-07,2.9099e-05
7.69e-07,2.72307e-05
7.7e-07,2.5486e-05
7.71e-07,2.38561e-05
7.72e-07,2.23332e-05
7.73e-07,2.09104e-05
7.74e-07,1.95808e-05
7.75e-07,1.83384e-05
7.76e-07,1.71777e-05
7.77e-07,1.60934e-05
7.78e-07,1.508e-05
7.79e-07,1.41336e-05
7.8e-07,1.3249e-05
7.81e-07,1.24226e-05
7.82e-07,1.16499e-05
7.83e-07,1.09277e-05
7.84e-07,1.02519e-05
7.85e-07,9.6196e-06
7.86e-07,9.0281e-06
7.87e-07,8.474e-06
7.88e-07,7.9548e-06
7.89e-07,7.4686e-06
7.9e-07,7.0128e-06
7.91e-07,6.5858e-06
7.92e-07,6.1857e-06
7.93e-07,5.8107e-06
7.94e-07,5.459e-06
7.95e-07,5.1298e-06
7.96e-07,4.8206e-06
7.97e-07,4.5312e-06
7.98e-07,4.2591e-06
7.99e-07,4.0042e-06
8e-07,3.76473e-06
8.01e-07,3.53995e-06
8.02e-07,3.32914e-06
8.03e-07,3.13115e-06
8.04e-07,2.94529e-06
8.05e-07,2.77081e-06
8.06e-07,2.60705e-06
8.07e-07,2.45329e-06
8.08e-07,2.30894e-06
8.09e-07,2.17338e-06
8.1e-07,2.04613e-06
8.11e-07,1.92662e-06
8.12e-07,1.8144e-06
8.13e-07,1.70895e-06
8.14e-07,1.60988e-06
8.15e-07,1.51677e-06
8.16e-07,1.42921e-06
8.17e-07,1.34686e-06
8.18e-07,1.26945e-06
8.19e-07,1.19662e-06
8.2e-07,1.12809e-06
8.21e-07,1.06368e-06
8.22e-07,1.00313e-06
8.23e-07,9.4622e-07
8.24e-07,8.9263e-07
8.25e-07,8.4216e-07
8.26e-07,7.9464e-07
8.27e-07,7.4978e-07
8.28e-07,7.0744e-07
8.29e-07,6.6748e-07
8.3e-07,6.297e-07
