wavelength,n
7.7e-08,0.367
7.8e-08,0.339
7.9e-08,0.302
8e-08,0.255
8.1e-08,0.207
8.2e-08,0.161
8.26e-08,0.115
8.35e-08,0.092
8.68e-08,0.053
9.2e-08,0.044
9.64e-08,0.038
1.048e-07,0.031
1.135e-07,0.026
