wavelength,k
1e-15,4.75
1.25e-15,5.6
1.5e-15,6.5
1.8e-15,7.3
2e-15,8.1
2.5e-15,9.6
3e-15,11.0
3.5e-15,12.3
4e-15,13.4
4.5e-15,14.7
5e-15,15.9
5.5e-15,17.0
6e-15,18.2
6.5e-15,19.4
7e-15,20.5
7.5e-15,21.7
8e-15,22.8
8.5e-15,23.8
9e-15,24.9
