wavelength,n
1e-06,2.65
1.25e-06,2.9
1.5e-06,3.2
1.8e-06,3.5
2e-06,3.8
2.5e-06,4.45
3e-06,5.2
3.5e-06,5.9
4e-06,6.65
4.5e-06,7.45
5e-06,8.2
5.5e-06,9.0
6e-06,9.85
6.5e-06,10.8
7e-06,11.6
7.5e-06,12.5
8e-06,13.5
8.5e-06,14.4
9e-06,15.4
