wavelength,k
5.5e-16,4.7
6e-16,5.02
6.5e-16,5.42
7e-16,5.83
7.2e-16,6.0
7.4e-16,6.18
7.5e-16,6.26
7.6e-16,6.31
8e-16,6.6
8.5e-16,6.78
9e-16,7.18
9.5e-16,7.44
1e-15,7.77
1.1e-15,8.38
1.2e-15,9.0
1.3e-15,9.7
1.4e-15,10.35
1.5e-15,11.0
1.6e-15,11.8
1.7e-15,12.5
1.8e-15,13.1
1.9e-15,13.8
2e-15,14.5
2.1e-15,15.0
2.2e-15,15.6
2.4e-15,16.9
2.5e-15,17.6
2.6e-15,18.3
3e-15,20.9
3.5e-15,23.9
4e-15,26.7
5e-15,32.2
6e-15,37.2
8e-15,45.3
1e-14,51.9
