wavelength,n
2.066e-07,1.77403147162
2.1089508319e-07,1.74089031
2.15279458439e-07,1.7064516691
2.19754982075e-07,1.67153380755
2.24323549012e-07,1.63696149606
2.28987093564e-07,1.60354242845
2.33747590255e-07,1.57203802453
2.38607054657e-07,1.54313169628
2.43567544248e-07,1.5173990747
2.48631159276e-07,1.49528498058
2.53800043655e-07,1.47709078632
2.59076385867e-07,1.46297361192
2.64462419893e-07,1.452956361
2.69960426156e-07,1.44694578337
2.75572732488e-07,1.44475499622
2.81301715116e-07,1.44612713866
2.87149799665e-07,1.45075768149
2.93119462189e-07,1.45831392766
2.99213230217e-07,1.46845111275
3.05433683824e-07,1.48082512169
3.11783456723e-07,1.49510217769
3.18265237381e-07,1.51096599627
3.24881770154e-07,1.52812290634
3.31635856454e-07,1.54630538284
3.38530355932e-07,1.56527435442
3.45568187689e-07,1.58482056741
3.52752331512e-07,1.60476521634
3.60085829136e-07,1.62495999411
3.67571785533e-07,1.64528667226
3.75213370223e-07,1.66565629072
3.83013818621e-07,1.68600801545
3.90976433402e-07,1.70630770818
3.99104585903e-07,1.72654624415
4.07401717548e-07,1.74673760935
4.15871341306e-07,1.7669168069
4.2451704318e-07,1.7871376025
4.33342483722e-07,1.80747014014
4.42351399584e-07,1.82799846107
4.51547605104e-07,1.84881796058
4.60934993913e-07,1.87003281865
4.70517540592e-07,1.89175344021
4.80299302349e-07,1.91409394037
4.9028442074e-07,1.93716970763
5.0047712342e-07,1.96109507471
5.10881725935e-07,1.98598112261
5.21502633549e-07,2.0119336384
5.32344343107e-07,2.0390512423
5.43411444943e-07,2.06742369474
5.54708624818e-07,2.09713038965
5.6624066591e-07,2.12823903736
5.78012450835e-07,2.1608045382
5.90028963715e-07,2.19486804744
6.02295292289e-07,2.2304562332
6.14816630068e-07,2.26758073074
6.27598278532e-07,2.30623779999
6.40645649374e-07,2.34640819678
6.53964266795e-07,2.38805727273
6.67559769839e-07,2.43113532254
6.81437914784e-07,2.47557820139
6.95604577575e-07,2.52130823787
7.10065756315e-07,2.56823546934
7.24827573806e-07,2.61625922715
7.39896280135e-07,2.66527009746
7.55278255329e-07,2.71515228059
7.70980012047e-07,2.76578636685
7.87008198346e-07,2.81705254085
8.03369600489e-07,2.86883421801
8.20071145824e-07,2.92102210792
8.37119905712e-07,2.97351868848
8.54523098523e-07,3.02624306164
8.72288092693e-07,3.07913614766
8.90422409845e-07,3.13216615622
9.08933727968e-07,3.18533425203
9.27829884674e-07,3.23868030448
9.47118880514e-07,3.29228857703
9.66808882365e-07,3.34629316686
9.86908226887e-07,3.40088294905
1.00742542406e-06,3.45630570694
1.02836916076e-06,3.512871041
1.0497483045e-06,3.57095153936
1.07157190709e-06,3.63098156496
1.09384920857e-06,3.69345287113
1.11658964103e-06,3.75890610843
1.13980283269e-06,3.82791715124
1.16349861191e-06,3.90107708609
1.18768701137e-06,3.97896471897
1.21237827235e-06,4.06211065181
1.237582849e-06,4.15095244548
1.26331141285e-06,4.24578123198
1.28957485725e-06,4.34668144155
1.31638430203e-06,4.45346707178
1.34375109819e-06,4.5656200032
1.37168683271e-06,4.68223790941
1.40020333347e-06,4.80200075929
1.42931267422e-06,4.92316508334
1.45902717974e-06,5.04359348001
1.48935943101e-06,5.16082304849
1.52032227059e-06,5.27217093497
1.55192880799e-06,5.37486901298
1.58419242529e-06,5.466214354
1.61712678277e-06,5.5437190143
1.65074582469e-06,5.60524265655
1.6850637852e-06,5.64909465575
1.72009519439e-06,5.67409775897
1.75585488439e-06,5.67961168409
1.7923579957e-06,5.66552079063
1.82961998359e-06,5.63219403195
1.86765662461e-06,5.58042728127
1.90648402331e-06,5.51137788233
1.94611861905e-06,5.42649939227
1.98657719294e-06,5.32748164289
2.02787687497e-06,5.21619813838
2.07003515123e-06,5.09466002788
2.11306987137e-06,4.96497390521
2.15699925609e-06,4.82929982329
2.2018419049e-06,4.68980633003
2.24761680399e-06,4.54862095841
2.29434333425e-06,4.40777704221
2.34204127949e-06,4.26916027038
2.39073083481e-06,4.13446018505
2.44043261516e-06,4.00513219695
2.49116766405e-06,3.88237446118
2.54295746248e-06,3.76712155224
2.59582393804e-06,3.66005412751
2.64978947414e-06,3.56162151331
2.70487691958e-06,3.47207290205
2.76110959812e-06,3.39149268187
2.81851131845e-06,3.31983606631
2.8771063842e-06,3.25696225073
2.93691960427e-06,3.20266343939
2.99797630331e-06,3.15668903595
3.06030233246e-06,3.11876497572
3.1239240803e-06,3.08860860298
3.188868484e-06,3.06593970866
3.25516304072e-06,3.0504884077
3.32283581931e-06,3.04200050783
3.39191547211e-06,3.04024094658
3.46243124716e-06,3.04499578066
3.53441300053e-06,3.05607311815
3.60789120897e-06,3.07330329963
3.68289698284e-06,3.0965385623
3.75946207926e-06,3.12565236265
3.83761891556e-06,3.16053848634
3.91740058299e-06,3.20111003858
3.99884086078e-06,3.24729838029
4.08197423038e-06,3.29905205561
4.1668358901e-06,3.35633574056
4.25346176999e-06,3.4191292322
4.34188854708e-06,3.48742648945
4.43215366088e-06,3.56123473119
4.52429532923e-06,3.64057359348
4.61835256454e-06,3.72547434499
4.71436519021e-06,3.81597915804
4.81237385758e-06,3.91214043146
4.91242006309e-06,4.01402016112
5.01454616587e-06,4.12168935328
5.11879540566e-06,4.23522747613
5.22521192114e-06,4.35472194481
5.3338407686e-06,4.48026763541
5.44472794102e-06,4.61196642365
5.55792038754e-06,4.74992674412
5.67346603336e-06,4.89426316646
5.79141379999e-06,5.04509598487
5.91181362602e-06,5.20255081786
6.0347164882e-06,5.36675821517
6.16017442306e-06,5.53785326946
6.28824054896e-06,5.71597523016
6.41896908852e-06,5.90126711757
6.55241539166e-06,6.09387533513
6.68863595894e-06,6.29394927852
6.82768846557e-06,6.50164094001
6.96963178576e-06,6.71710450697
7.11452601772e-06,6.94049595377
7.26243250901e-06,7.17197262625
7.41341388261e-06,7.41169281838
7.56753406337e-06,7.65981534101
7.72485830511e-06,7.9164990826
7.88545321822e-06,8.1819025622
8.04938679789e-06,8.45618347535
8.21672845289e-06,8.73949823335
8.38754903495e-06,9.03200149703
8.56192086874e-06,9.33384570604
8.73991778256e-06,9.64518060521
8.92161513952e-06,9.9661527693
9.10708986948e-06,10.2969051281
9.29642050165e-06,10.6375764939
9.48968719778e-06,10.988301093
9.68697178616e-06,11.3492081043
9.88835779621e-06,11.7204212065
1.00939304939e-05,12.1020581374
1.03037769178e-05,12.4942302671
1.0517985916e-05,12.8970421882
1.07366481837e-05,13.3105913253
1.09598563014e-05,13.7349675681
1.11877047746e-05,14.1702529276
1.14202900733e-05,14.6165212223
1.16577106731e-05,15.073837793
1.19000670968e-05,15.5422592512
1.21474619572e-05,16.0218332626
1.24e-05,16.5125983677
