wavelength,k
3.0996e-08,0.301987
3.1025e-08,0.300682
3.1055e-08,0.299383
3.1084e-08,0.298092
3.1114e-08,0.296809
3.1144e-08,0.295535
3.1173e-08,0.294272
3.1203e-08,0.29302
3.1233e-08,0.291781
3.1263e-08,0.290556
3.1293e-08,0.289345
3.1323e-08,0.288149
3.1353e-08,0.28697
3.1383e-08,0.285808
3.1413e-08,0.284665
3.1443e-08,0.283541
3.1473e-08,0.282436
3.1503e-08,0.281353
3.1534e-08,0.28029
3.1564e-08,0.27925
3.1595e-08,0.278233
3.1625e-08,0.27724
3.1656e-08,0.276271
3.1687e-08,0.275327
3.1717e-08,0.274408
3.1748e-08,0.273515
3.1779e-08,0.272648
3.181e-08,0.271809
3.1841e-08,0.270996
3.1872e-08,0.270212
3.1903e-08,0.269456
3.1934e-08,0.268728
3.1965e-08,0.268029
3.1996e-08,0.267359
3.2028e-08,0.266718
3.2059e-08,0.266107
3.2091e-08,0.265525
3.2122e-08,0.264974
3.2154e-08,0.264452
3.2185e-08,0.26396
3.2217e-08,0.263499
3.2249e-08,0.263068
3.2281e-08,0.262667
3.2313e-08,0.262297
3.2344e-08,0.261956
3.2376e-08,0.261646
3.2409e-08,0.261366
3.2441e-08,0.261116
3.2473e-08,0.260895
3.2505e-08,0.260705
3.2538e-08,0.260544
3.257e-08,0.260413
3.2602e-08,0.26031
3.2635e-08,0.260237
3.2667e-08,0.260193
3.27e-08,0.260177
3.2733e-08,0.260189
3.2766e-08,0.260229
3.2798e-08,0.260297
3.2831e-08,0.260393
3.2864e-08,0.260515
3.2897e-08,0.260664
3.2931e-08,0.26084
3.2964e-08,0.261042
3.2997e-08,0.261269
3.303e-08,0.261522
3.3064e-08,0.2618
3.3097e-08,0.262103
3.3131e-08,0.262429
3.3164e-08,0.26278
3.3198e-08,0.263154
3.3232e-08,0.26355
3.3265e-08,0.26397
3.3299e-08,0.264411
3.3333e-08,0.264875
3.3367e-08,0.265359
3.3401e-08,0.265865
3.3435e-08,0.266391
3.347e-08,0.266937
3.3504e-08,0.267502
3.3538e-08,0.268087
3.3573e-08,0.26869
3.3607e-08,0.269312
3.3642e-08,0.269951
3.3676e-08,0.270608
3.3711e-08,0.271281
3.3746e-08,0.271971
3.3781e-08,0.272677
3.3816e-08,0.273399
3.3851e-08,0.274136
3.3886e-08,0.274887
3.3921e-08,0.275653
3.3956e-08,0.276432
3.3991e-08,0.277225
3.4027e-08,0.278031
3.4062e-08,0.278849
3.4098e-08,0.27968
3.4133e-08,0.280522
3.4169e-08,0.281375
3.4205e-08,0.28224
3.424e-08,0.283114
3.4276e-08,0.283999
3.4312e-08,0.284893
3.4348e-08,0.285797
3.4384e-08,0.286709
3.442e-08,0.28763
3.4457e-08,0.288559
3.4493e-08,0.289495
3.4529e-08,0.290439
3.4566e-08,0.29139
3.4602e-08,0.292347
3.4639e-08,0.29331
3.4676e-08,0.294279
3.4713e-08,0.295254
3.475e-08,0.296233
3.4786e-08,0.297218
3.4823e-08,0.298206
3.4861e-08,0.299199
3.4898e-08,0.300196
3.4935e-08,0.301196
3.4972e-08,0.302199
3.501e-08,0.303204
3.5047e-08,0.304213
3.5085e-08,0.305223
3.5123e-08,0.306235
3.516e-08,0.307249
3.5198e-08,0.308264
3.5236e-08,0.30928
3.5274e-08,0.310297
3.5312e-08,0.311314
3.535e-08,0.312331
3.5389e-08,0.313349
3.5427e-08,0.314365
3.5465e-08,0.315382
3.5504e-08,0.316397
3.5542e-08,0.317411
3.5581e-08,0.318424
3.562e-08,0.319435
3.5659e-08,0.320444
3.5697e-08,0.321451
3.5736e-08,0.322456
3.5776e-08,0.323459
3.5815e-08,0.324458
3.5854e-08,0.325455
3.5893e-08,0.326448
3.5933e-08,0.327439
3.5972e-08,0.328425
3.6012e-08,0.329408
3.6052e-08,0.330387
3.6091e-08,0.331362
3.6131e-08,0.332333
3.6171e-08,0.333299
3.6211e-08,0.33426
3.6251e-08,0.335217
3.6292e-08,0.336169
3.6332e-08,0.337115
3.6372e-08,0.338056
3.6413e-08,0.338992
3.6453e-08,0.339922
3.6494e-08,0.340847
3.6535e-08,0.341765
3.6576e-08,0.342678
3.6616e-08,0.343584
3.6658e-08,0.344484
3.6699e-08,0.345378
3.674e-08,0.346265
3.6781e-08,0.347145
3.6823e-08,0.348019
3.6864e-08,0.348885
3.6906e-08,0.349745
3.6947e-08,0.350597
3.6989e-08,0.351442
3.7031e-08,0.35228
3.7073e-08,0.35311
3.7115e-08,0.353933
3.7157e-08,0.354748
3.7199e-08,0.355555
3.7242e-08,0.356354
3.7284e-08,0.357145
3.7327e-08,0.357928
3.7369e-08,0.358703
3.7412e-08,0.35947
3.7455e-08,0.360228
3.7498e-08,0.360978
3.7541e-08,0.361719
3.7584e-08,0.362452
3.7627e-08,0.363176
3.7671e-08,0.363891
3.7714e-08,0.364598
3.7758e-08,0.365295
3.7801e-08,0.365984
3.7845e-08,0.366663
3.7889e-08,0.367334
3.7933e-08,0.367995
3.7977e-08,0.368647
3.8021e-08,0.369289
3.8065e-08,0.369922
3.8109e-08,0.370546
3.8154e-08,0.37116
3.8198e-08,0.371765
3.8243e-08,0.372359
3.8288e-08,0.372945
3.8333e-08,0.37352
3.8378e-08,0.374086
3.8423e-08,0.374641
3.8468e-08,0.375187
3.8513e-08,0.375723
3.8559e-08,0.376249
3.8604e-08,0.376764
3.865e-08,0.37727
3.8695e-08,0.377765
3.8741e-08,0.37825
3.8787e-08,0.378725
3.8833e-08,0.37919
3.8879e-08,0.379644
3.8926e-08,0.380087
3.8972e-08,0.38052
3.9019e-08,0.380943
3.9065e-08,0.381355
3.9112e-08,0.381757
3.9159e-08,0.382147
3.9206e-08,0.382527
3.9253e-08,0.382897
3.93e-08,0.383255
3.9347e-08,0.383603
3.9394e-08,0.38394
3.9442e-08,0.384266
3.949e-08,0.384581
3.9537e-08,0.384885
3.9585e-08,0.385178
3.9633e-08,0.38546
3.9681e-08,0.385731
3.9729e-08,0.385991
3.9778e-08,0.38624
3.9826e-08,0.386478
3.9875e-08,0.386704
3.9923e-08,0.386919
3.9972e-08,0.387123
4.0021e-08,0.387315
4.007e-08,0.387497
4.0119e-08,0.387666
4.0168e-08,0.387825
4.0218e-08,0.387972
4.0267e-08,0.388108
4.0317e-08,0.388232
4.0367e-08,0.388345
4.0417e-08,0.388446
4.0467e-08,0.388535
4.0517e-08,0.388614
4.0567e-08,0.38868
4.0617e-08,0.388735
4.0668e-08,0.388778
4.0718e-08,0.38881
4.0769e-08,0.38883
4.082e-08,0.388839
4.0871e-08,0.388835
4.0922e-08,0.38882
4.0973e-08,0.388794
4.1025e-08,0.388756
4.1076e-08,0.388706
4.1128e-08,0.388644
4.118e-08,0.38857
4.1232e-08,0.388485
4.1284e-08,0.388388
4.1336e-08,0.38828
4.1388e-08,0.388159
4.1441e-08,0.388027
4.1493e-08,0.387883
4.1546e-08,0.387728
4.1599e-08,0.38756
4.1652e-08,0.387381
4.1705e-08,0.38719
4.1758e-08,0.386988
4.1811e-08,0.386774
4.1865e-08,0.386548
4.1918e-08,0.386311
4.1972e-08,0.386061
4.2026e-08,0.385801
4.208e-08,0.385528
4.2134e-08,0.385244
4.2189e-08,0.384949
4.2243e-08,0.384642
4.2298e-08,0.384324
4.2353e-08,0.383994
4.2407e-08,0.383652
4.2463e-08,0.383299
4.2518e-08,0.382935
4.2573e-08,0.38256
4.2629e-08,0.382173
4.2684e-08,0.381775
4.274e-08,0.381366
4.2796e-08,0.380946
4.2852e-08,0.380515
4.2908e-08,0.380072
4.2964e-08,0.379619
4.3021e-08,0.379155
4.3078e-08,0.37868
4.3134e-08,0.378194
4.3191e-08,0.377697
4.3248e-08,0.37719
4.3306e-08,0.376672
4.3363e-08,0.376144
4.3421e-08,0.375606
4.3478e-08,0.375057
4.3536e-08,0.374497
4.3594e-08,0.373928
4.3652e-08,0.373348
4.3711e-08,0.372759
4.3769e-08,0.37216
4.3828e-08,0.371551
4.3887e-08,0.370932
4.3946e-08,0.370303
4.4005e-08,0.369665
4.4064e-08,0.369018
4.4123e-08,0.368362
4.4183e-08,0.367696
4.4243e-08,0.367021
4.4303e-08,0.366338
4.4363e-08,0.365646
4.4423e-08,0.364945
4.4483e-08,0.364235
4.4544e-08,0.363517
4.4605e-08,0.362791
4.4666e-08,0.362057
4.4727e-08,0.361315
4.4788e-08,0.360565
4.4849e-08,0.359807
4.4911e-08,0.359042
4.4973e-08,0.358269
4.5035e-08,0.35749
4.5097e-08,0.356703
4.5159e-08,0.355909
4.5221e-08,0.355109
4.5284e-08,0.354302
4.5347e-08,0.353489
4.541e-08,0.352669
4.5473e-08,0.351844
4.5536e-08,0.351012
4.56e-08,0.350175
4.5663e-08,0.349333
4.5727e-08,0.348485
4.5791e-08,0.347632
4.5855e-08,0.346775
4.592e-08,0.345912
4.5984e-08,0.345045
4.6049e-08,0.344174
4.6114e-08,0.343299
4.6179e-08,0.342419
4.6244e-08,0.341537
4.631e-08,0.34065
4.6375e-08,0.339761
4.6441e-08,0.338868
4.6507e-08,0.337973
4.6573e-08,0.337075
4.664e-08,0.336174
4.6706e-08,0.335272
4.6773e-08,0.334367
4.684e-08,0.333461
4.6907e-08,0.332553
4.6975e-08,0.331645
4.7042e-08,0.330735
4.711e-08,0.329824
4.7178e-08,0.328913
4.7246e-08,0.328002
4.7314e-08,0.327091
4.7383e-08,0.32618
4.7452e-08,0.325269
4.752e-08,0.32436
4.759e-08,0.323451
4.7659e-08,0.322543
4.7728e-08,0.321637
4.7798e-08,0.320733
4.7868e-08,0.31983
4.7938e-08,0.31893
4.8009e-08,0.318033
4.8079e-08,0.317138
4.815e-08,0.316246
4.8221e-08,0.315358
4.8292e-08,0.314473
4.8364e-08,0.313592
4.8435e-08,0.312715
4.8507e-08,0.311842
4.8579e-08,0.310974
4.8651e-08,0.310111
4.8724e-08,0.309253
4.8796e-08,0.308401
4.8869e-08,0.307554
4.8942e-08,0.306714
4.9016e-08,0.30588
4.9089e-08,0.305052
4.9163e-08,0.304231
4.9237e-08,0.303417
4.9311e-08,0.302611
4.9386e-08,0.301812
4.946e-08,0.301021
4.9535e-08,0.300239
4.961e-08,0.299465
4.9686e-08,0.298699
4.9761e-08,0.297943
4.9837e-08,0.297197
4.9913e-08,0.29646
4.9989e-08,0.295732
5.0066e-08,0.295016
5.0143e-08,0.294309
5.022e-08,0.293614
5.0297e-08,0.292929
5.0374e-08,0.292256
5.0452e-08,0.291595
5.053e-08,0.290945
5.0608e-08,0.290308
5.0686e-08,0.289684
5.0765e-08,0.289072
5.0844e-08,0.288473
5.0923e-08,0.287888
5.1003e-08,0.287316
5.1082e-08,0.286759
5.1162e-08,0.286216
5.1242e-08,0.285687
5.1323e-08,0.285174
5.1403e-08,0.284675
5.1484e-08,0.284193
5.1565e-08,0.283726
5.1647e-08,0.283275
5.1728e-08,0.28284
5.181e-08,0.282423
5.1893e-08,0.282022
5.1975e-08,0.281638
5.2058e-08,0.281273
5.2141e-08,0.280925
5.2224e-08,0.280596
5.2307e-08,0.280285
5.2391e-08,0.279993
5.2475e-08,0.27972
5.256e-08,0.279466
5.2644e-08,0.279233
5.2729e-08,0.27902
5.2814e-08,0.278827
5.2899e-08,0.278655
5.2985e-08,0.278504
5.3071e-08,0.278374
5.3157e-08,0.278266
5.3244e-08,0.27818
5.3331e-08,0.278117
5.3418e-08,0.278076
5.3505e-08,0.278059
5.3593e-08,0.278065
5.3681e-08,0.278094
5.3769e-08,0.278147
5.3857e-08,0.278225
5.3946e-08,0.278328
5.4035e-08,0.278455
5.4125e-08,0.278608
5.4214e-08,0.278787
5.4304e-08,0.278992
5.4395e-08,0.279223
5.4485e-08,0.27948
5.4576e-08,0.279765
5.4667e-08,0.280077
5.4759e-08,0.280417
5.4851e-08,0.280785
5.4943e-08,0.281181
5.5035e-08,0.281606
5.5128e-08,0.282061
5.5221e-08,0.282544
5.5315e-08,0.283058
5.5408e-08,0.283601
5.5502e-08,0.284175
5.5597e-08,0.284779
5.5691e-08,0.285415
5.5786e-08,0.286082
5.5881e-08,0.286781
5.5977e-08,0.287512
5.6073e-08,0.288276
5.6169e-08,0.289072
5.6266e-08,0.289901
5.6363e-08,0.290764
5.646e-08,0.291661
5.6558e-08,0.292591
5.6656e-08,0.293556
5.6754e-08,0.294555
5.6853e-08,0.295589
5.6952e-08,0.296658
5.7051e-08,0.297763
5.7151e-08,0.298904
5.7251e-08,0.30008
5.7351e-08,0.301293
5.7452e-08,0.302542
5.7553e-08,0.303828
5.7654e-08,0.305151
5.7756e-08,0.306512
5.7858e-08,0.307909
5.7961e-08,0.309344
5.8064e-08,0.310817
5.8167e-08,0.312327
5.827e-08,0.313876
5.8374e-08,0.315463
5.8479e-08,0.317088
5.8583e-08,0.318751
5.8689e-08,0.320453
5.8794e-08,0.322193
5.89e-08,0.323972
5.9006e-08,0.325789
5.9113e-08,0.327645
5.922e-08,0.329539
5.9327e-08,0.331471
5.9435e-08,0.333442
5.9543e-08,0.335451
5.9652e-08,0.337498
5.9761e-08,0.339582
5.987e-08,0.341704
5.998e-08,0.343864
6.009e-08,0.346061
6.0201e-08,0.348294
6.0312e-08,0.350564
6.0423e-08,0.35287
6.0535e-08,0.355212
6.0647e-08,0.357589
6.076e-08,0.36
6.0873e-08,0.362446
6.0986e-08,0.364925
6.11e-08,0.367437
6.1214e-08,0.369982
6.1329e-08,0.372558
6.1444e-08,0.375165
6.156e-08,0.377802
6.1676e-08,0.380469
6.1793e-08,0.383164
6.1909e-08,0.385886
6.2027e-08,0.388635
6.2145e-08,0.39141
6.2263e-08,0.394209
6.2382e-08,0.397032
6.2501e-08,0.399877
6.262e-08,0.402743
6.2741e-08,0.40563
6.2861e-08,0.408535
6.2982e-08,0.411458
6.3104e-08,0.414397
6.3226e-08,0.41735
6.3348e-08,0.420318
6.3471e-08,0.423297
6.3594e-08,0.426287
6.3718e-08,0.429286
6.3843e-08,0.432293
6.3967e-08,0.435307
6.4093e-08,0.438324
6.4219e-08,0.441345
6.4345e-08,0.444368
6.4472e-08,0.447391
6.4599e-08,0.450411
6.4727e-08,0.453429
6.4855e-08,0.456442
6.4984e-08,0.459449
6.5113e-08,0.462447
6.5243e-08,0.465437
6.5374e-08,0.468415
6.5504e-08,0.47138
6.5636e-08,0.474332
6.5768e-08,0.477267
6.59e-08,0.480186
6.6033e-08,0.483086
6.6167e-08,0.485966
6.6301e-08,0.488826
6.6436e-08,0.491662
6.6571e-08,0.494475
6.6707e-08,0.497263
6.6843e-08,0.500025
6.698e-08,0.50276
6.7117e-08,0.505467
6.7255e-08,0.508145
6.7394e-08,0.510794
6.7533e-08,0.513413
6.7673e-08,0.516
6.7813e-08,0.518557
6.7954e-08,0.521081
6.8095e-08,0.523574
6.8237e-08,0.526035
6.838e-08,0.528464
6.8523e-08,0.53086
6.8667e-08,0.533225
6.8811e-08,0.535559
6.8956e-08,0.537862
6.9102e-08,0.540135
6.9248e-08,0.542379
6.9395e-08,0.544595
6.9543e-08,0.546784
6.9691e-08,0.548947
6.984e-08,0.551086
6.9989e-08,0.553203
7.0139e-08,0.555299
7.029e-08,0.557376
7.0441e-08,0.559437
7.0593e-08,0.561483
7.0746e-08,0.563518
7.0899e-08,0.565544
7.1053e-08,0.567564
7.1208e-08,0.569581
7.1363e-08,0.571597
7.1519e-08,0.573618
7.1676e-08,0.575645
7.1833e-08,0.577682
7.1991e-08,0.579734
7.215e-08,0.581804
7.231e-08,0.583896
7.247e-08,0.586014
7.2631e-08,0.588162
7.2792e-08,0.590345
7.2955e-08,0.592566
7.3118e-08,0.59483
7.3281e-08,0.597142
7.3446e-08,0.599505
7.3611e-08,0.601923
7.3777e-08,0.604401
7.3944e-08,0.606943
7.4112e-08,0.609551
7.428e-08,0.61223
7.4449e-08,0.614983
7.4619e-08,0.617812
7.4789e-08,0.62072
7.4961e-08,0.623709
7.5133e-08,0.62678
7.5306e-08,0.629934
7.548e-08,0.63317
7.5654e-08,0.636488
7.5829e-08,0.639887
7.6006e-08,0.643362
7.6183e-08,0.646912
7.636e-08,0.650529
7.6539e-08,0.654209
7.6719e-08,0.657943
7.6899e-08,0.661722
7.708e-08,0.665534
7.7262e-08,0.669368
7.7445e-08,0.673209
7.7629e-08,0.677039
7.7814e-08,0.680842
7.7999e-08,0.684596
7.8185e-08,0.68828
7.8373e-08,0.691869
7.8561e-08,0.695336
7.875e-08,0.698655
7.894e-08,0.701795
7.9131e-08,0.704724
7.9323e-08,0.707412
7.9516e-08,0.709823
7.971e-08,0.711924
7.9904e-08,0.713681
8.01e-08,0.71506
8.0296e-08,0.716026
8.0494e-08,0.716547
8.0693e-08,0.716594
8.0892e-08,0.716137
8.1093e-08,0.715152
8.1294e-08,0.713616
8.1497e-08,0.711513
8.17e-08,0.708828
8.1905e-08,0.705554
8.211e-08,0.701688
8.2317e-08,0.697231
8.2525e-08,0.692193
8.2733e-08,0.686587
8.2943e-08,0.680433
8.3154e-08,0.673753
8.3366e-08,0.666579
8.3579e-08,0.658943
8.3793e-08,0.650883
8.4008e-08,0.642438
8.4224e-08,0.633651
8.4442e-08,0.624567
8.466e-08,0.615231
8.488e-08,0.605689
8.5101e-08,0.595984
8.5323e-08,0.586162
8.5546e-08,0.576266
8.577e-08,0.566335
8.5996e-08,0.556408
8.6222e-08,0.546522
8.645e-08,0.536709
8.6679e-08,0.527001
8.6909e-08,0.517424
8.7141e-08,0.508003
8.7374e-08,0.49876
8.7608e-08,0.489715
8.7843e-08,0.480883
8.8079e-08,0.47228
8.8317e-08,0.463917
8.8556e-08,0.455805
8.8797e-08,0.447951
8.9038e-08,0.440362
8.9281e-08,0.433043
8.9526e-08,0.425998
8.9771e-08,0.419229
9.0018e-08,0.412739
9.0267e-08,0.406527
9.0517e-08,0.400595
9.0768e-08,0.394942
9.102e-08,0.389568
9.1274e-08,0.384471
9.153e-08,0.379649
9.1786e-08,0.375103
9.2045e-08,0.37083
9.2304e-08,0.366828
9.2566e-08,0.363098
9.2828e-08,0.359636
9.3092e-08,0.356442
9.3358e-08,0.353515
9.3625e-08,0.350854
9.3894e-08,0.348459
9.4164e-08,0.346329
9.4436e-08,0.344464
9.4709e-08,0.342864
9.4984e-08,0.34153
9.5261e-08,0.340462
9.5539e-08,0.339661
9.5819e-08,0.339129
9.6101e-08,0.338865
9.6384e-08,0.338873
9.6669e-08,0.339152
9.6955e-08,0.339705
9.7243e-08,0.340533
9.7533e-08,0.341637
9.7825e-08,0.343018
9.8118e-08,0.344678
9.8413e-08,0.346616
9.871e-08,0.348833
9.9009e-08,0.351328
9.931e-08,0.354099
9.9612e-08,0.357144
9.9916e-08,0.360459
1.00222e-07,0.364039
1.0053e-07,0.367877
1.0084e-07,0.371965
1.01152e-07,0.376293
1.01466e-07,0.380848
1.01782e-07,0.385616
1.02099e-07,0.390578
1.02419e-07,0.395715
1.02741e-07,0.401004
1.03064e-07,0.406421
1.0339e-07,0.411936
1.03718e-07,0.41752
1.04048e-07,0.42314
1.0438e-07,0.428761
1.04714e-07,0.434348
1.0505e-07,0.439863
1.05388e-07,0.44527
1.05729e-07,0.450533
1.06072e-07,0.455617
1.06417e-07,0.460489
1.06764e-07,0.46512
1.07114e-07,0.469484
1.07466e-07,0.47356
1.0782e-07,0.477334
1.08176e-07,0.480796
1.08535e-07,0.483941
1.08897e-07,0.486772
1.0926e-07,0.489298
1.09626e-07,0.491533
1.09995e-07,0.493494
1.10366e-07,0.495204
1.1074e-07,0.496689
1.11116e-07,0.497977
1.11495e-07,0.499097
1.11876e-07,0.500076
1.1226e-07,0.500943
1.12646e-07,0.501724
1.13036e-07,0.50244
1.13427e-07,0.503112
1.13822e-07,0.503755
1.1422e-07,0.504379
1.1462e-07,0.504991
1.15023e-07,0.505592
1.15429e-07,0.506179
1.15837e-07,0.506744
1.16249e-07,0.507275
1.16664e-07,0.507756
1.17081e-07,0.508167
1.17502e-07,0.508487
1.17925e-07,0.508689
1.18352e-07,0.508746
1.18782e-07,0.50863
1.19214e-07,0.508312
1.1965e-07,0.507762
1.2009e-07,0.50695
1.20532e-07,0.505848
1.20978e-07,0.504431
1.21427e-07,0.502672
1.21879e-07,0.500549
1.22335e-07,0.498043
1.22794e-07,0.495139
1.23257e-07,0.491823
1.23723e-07,0.488086
1.24193e-07,0.483925
1.24666e-07,0.479338
1.25143e-07,0.474329
1.25624e-07,0.468905
1.26108e-07,0.463078
1.26596e-07,0.456863
1.27088e-07,0.450277
1.27583e-07,0.443342
1.28083e-07,0.436083
1.28586e-07,0.428524
1.29094e-07,0.420695
1.29605e-07,0.412624
1.30121e-07,0.404342
1.3064e-07,0.395881
1.31164e-07,0.387269
1.31692e-07,0.37854
1.32224e-07,0.369721
1.32761e-07,0.360844
1.33302e-07,0.351935
1.33847e-07,0.343021
1.34397e-07,0.334128
1.34952e-07,0.325278
1.35511e-07,0.316493
1.36074e-07,0.307793
1.36643e-07,0.299196
1.37216e-07,0.290718
1.37794e-07,0.282372
1.38377e-07,0.274171
1.38965e-07,0.266126
1.39557e-07,0.258247
1.40155e-07,0.250539
1.40758e-07,0.24301
1.41367e-07,0.235664
1.4198e-07,0.228506
1.42599e-07,0.221536
1.43223e-07,0.214757
1.43853e-07,0.20817
1.44489e-07,0.201773
1.4513e-07,0.195567
1.45776e-07,0.189548
1.46429e-07,0.183717
1.47087e-07,0.178069
1.47751e-07,0.172601
1.48422e-07,0.167311
1.49098e-07,0.162195
1.49781e-07,0.157248
1.5047e-07,0.152467
1.51165e-07,0.147848
1.51867e-07,0.143386
1.52575e-07,0.139077
1.5329e-07,0.134916
1.54012e-07,0.1309
1.5474e-07,0.127023
1.55476e-07,0.123282
1.56218e-07,0.119671
1.56968e-07,0.116187
1.57725e-07,0.112825
1.58489e-07,0.109582
1.5926e-07,0.106453
1.60039e-07,0.103434
1.60826e-07,0.100521
1.61621e-07,0.097711
1.62423e-07,0.095
1.63234e-07,0.092384
1.64052e-07,0.08986
1.64879e-07,0.087424
1.65714e-07,0.085074
1.66558e-07,0.082805
1.6741e-07,0.080616
1.68272e-07,0.078502
1.69142e-07,0.076462
1.70021e-07,0.074492
1.70909e-07,0.07259
1.71807e-07,0.070753
1.72714e-07,0.06898
1.7363e-07,0.067266
1.74557e-07,0.065611
1.75493e-07,0.064012
1.7644e-07,0.062466
1.77396e-07,0.060973
1.78364e-07,0.059529
1.79342e-07,0.058133
1.8033e-07,0.056784
1.8133e-07,0.055479
1.8234e-07,0.054217
1.83362e-07,0.052996
1.84396e-07,0.051815
1.85441e-07,0.050672
1.86498e-07,0.049565
1.87568e-07,0.048494
1.88649e-07,0.047457
1.89744e-07,0.046453
1.90851e-07,0.045481
1.91971e-07,0.044539
1.93104e-07,0.043626
1.9425e-07,0.042741
1.95411e-07,0.041884
1.96585e-07,0.041053
1.97773e-07,0.040247
1.98976e-07,0.039466
2.00194e-07,0.038708
2.01427e-07,0.037972
2.02675e-07,0.037259
2.03938e-07,0.036567
2.05217e-07,0.035895
2.06513e-07,0.035243
2.07825e-07,0.03461
2.09154e-07,0.033996
2.10499e-07,0.0334
2.11863e-07,0.032823
2.13244e-07,0.032263
2.14643e-07,0.031722
2.16061e-07,0.031199
2.17497e-07,0.030695
2.18953e-07,0.030212
2.20428e-07,0.029751
2.21923e-07,0.029314
2.23439e-07,0.028906
2.24976e-07,0.02853
2.26534e-07,0.028193
2.28113e-07,0.027904
2.29715e-07,0.027672
2.3134e-07,0.027512
2.32987e-07,0.027441
2.34659e-07,0.027482
2.36354e-07,0.027661
2.38074e-07,0.028014
2.39819e-07,0.028578
2.4159e-07,0.029402
2.43388e-07,0.030533
2.45212e-07,0.03202
2.47064e-07,0.033902
2.48944e-07,0.03619
2.50853e-07,0.038853
2.52792e-07,0.041796
2.5476e-07,0.044849
2.5676e-07,0.047777
2.58791e-07,0.05032
2.60855e-07,0.052256
2.62951e-07,0.053456
2.65082e-07,0.053907
2.67248e-07,0.053695
2.69449e-07,0.05297
2.71687e-07,0.051897
2.73962e-07,0.050624
2.76276e-07,0.049273
2.78629e-07,0.047932
2.81022e-07,0.04666
2.83457e-07,0.045495
2.85935e-07,0.044461
2.88456e-07,0.04357
2.91022e-07,0.042829
2.93634e-07,0.04224
2.96294e-07,0.041806
2.99002e-07,0.041527
3.0176e-07,0.041404
3.0457e-07,0.04144
3.07432e-07,0.041638
3.10348e-07,0.042002
3.13321e-07,0.042536
