wavelength,k
1e-15,4.6
1.25e-15,5.5
1.5e-15,6.6
1.8e-15,7.5
2e-15,8.6
2.5e-15,10.6
3e-15,12.4
3.5e-15,14.3
4e-15,16.2
4.5e-15,17.8
5e-15,19.2
5.5e-15,20.4
6e-15,21.4
6.5e-15,22.5
7e-15,23.4
7.5e-15,24.3
8e-15,25.2
8.5e-15,26.0
9e-15,26.8
