wavelength,k
1e-15,4.3
1.25e-15,5.4
1.5e-15,6.4
1.8e-15,7.3
2e-15,8.15
2.5e-15,9.65
3e-15,11.0
3.5e-15,12.4
4e-15,13.8
4.5e-15,15.0
5e-15,16.2
5.5e-15,17.4
6e-15,18.6
6.5e-15,19.9
7e-15,21.2
7.5e-15,22.4
8e-15,23.6
8.5e-15,24.8
9e-15,26.0
9.5e-15,27.3
1e-14,28.5
