wavelength,n
1e-15,2.8
1.25e-15,2.9
1.5e-15,3.05
1.8e-15,3.25
2e-15,3.55
2.5e-15,4.25
3e-15,4.95
3.5e-15,5.7
4e-15,6.45
4.5e-15,7.2
5e-15,7.9
5.5e-15,8.6
6e-15,9.35
6.5e-15,10.0
7e-15,10.8
7.5e-15,11.4
8e-15,12.2
8.5e-15,13.1
9e-15,13.9
9.5e-15,14.8
1e-14,15.8
