wavelength,k
2.5157e-07,0.577801613
2.5316e-07,0.569701795
2.5475e-07,0.560078808
2.5634e-07,0.548891345
2.5793e-07,0.536140733
2.5952e-07,0.521875087
2.6112e-07,0.506187696
2.6271e-07,0.489213773
2.643e-07,0.471124947
2.6589e-07,0.45212117
2.6748e-07,0.432420532
2.6907e-07,0.412249024
2.7067e-07,0.391831658
2.7226e-07,0.371382518
2.7385e-07,0.351098957
2.7544e-07,0.331155243
2.7703e-07,0.311700698
2.7862e-07,0.292857499
2.8022e-07,0.274721021
2.8181e-07,0.257362168
2.834e-07,0.240828823
2.8499e-07,0.225148714
2.8658e-07,0.210333132
2.8818e-07,0.196379165
2.8977e-07,0.18327257
2.9136e-07,0.170990928
2.9295e-07,0.159505232
2.9454e-07,0.148782004
2.9614e-07,0.138784873
2.9773e-07,0.129475706
2.9932e-07,0.120816056
3.0091e-07,0.11276749
3.025e-07,0.105292332
3.0409e-07,0.09835399
3.0569e-07,0.0919176733
3.0728e-07,0.0859498581
3.0887e-07,0.0804191133
3.1046e-07,0.0752958242
3.1205e-07,0.0705519914
3.1365e-07,0.0661616709
3.1524e-07,0.0621005984
3.1683e-07,0.0583461984
3.1842e-07,0.0548775011
3.2001e-07,0.0516750052
3.2161e-07,0.0487207775
3.232e-07,0.045998066
3.2479e-07,0.0434914087
3.2638e-07,0.0411864938
3.2797e-07,0.0390700757
3.2957e-07,0.0371299223
3.3116e-07,0.0353546239
3.3275e-07,0.0337336996
3.3434e-07,0.0322574316
3.3593e-07,0.0309167457
3.3752e-07,0.0297033069
3.3912e-07,0.0286093155
3.4071e-07,0.0276275388
3.423e-07,0.0267512355
3.4389e-07,0.0259740953
3.4548e-07,0.0252748721
3.4708e-07,0.024600679
3.4867e-07,0.0239471567
3.5026e-07,0.0233137866
3.5185e-07,0.0226999922
3.5344e-07,0.0221051966
3.5504e-07,0.0215288237
3.5663e-07,0.0209703042
3.5822e-07,0.0204290871
3.5981e-07,0.0199046243
3.614e-07,0.0193963657
3.6299e-07,0.0189038069
3.6459e-07,0.0184264416
3.6618e-07,0.0179637641
3.6777e-07,0.0175153192
3.6936e-07,0.0170806241
3.7095e-07,0.016659245
3.7254e-07,0.0162507481
3.7414e-07,0.0158547078
3.7573e-07,0.0154707188
3.7732e-07,0.0150983944
3.7891e-07,0.0147373498
3.805e-07,0.0143872236
3.821e-07,0.0140476614
3.8369e-07,0.0137183156
3.8528e-07,0.0133988604
3.8687e-07,0.0130889713
3.8846e-07,0.0127883447
3.9005e-07,0.0124966776
3.9164e-07,0.0122136868
3.9324e-07,0.011939094
3.9483e-07,0.0116726266
3.9642e-07,0.0114140294
3.9801e-07,0.011163052
3.996e-07,0.0109194487
4.0119e-07,0.0106829899
4.0279e-07,0.0104534501
4.0438e-07,0.0102306115
4.0597e-07,0.0100142604
4.0756e-07,0.00980419741
4.0915e-07,0.00960022625
4.1074e-07,0.00940215755
4.1233e-07,0.00920980549
4.1393e-07,0.00902299364
4.1552e-07,0.00884155711
4.1711e-07,0.00866533082
4.187e-07,0.00849415016
4.2029e-07,0.00832786154
4.2188e-07,0.00816632148
4.2347e-07,0.00800938148
4.2506e-07,0.00785690763
4.2665e-07,0.00770876125
4.2825e-07,0.007564813
4.2984e-07,0.00742494638
4.3143e-07,0.00728902754
4.3302e-07,0.00715694809
4.3461e-07,0.00702859485
4.362e-07,0.00690385462
4.3779e-07,0.00678262196
4.3938e-07,0.00666479848
4.4097e-07,0.00655028528
4.4257e-07,0.00643898338
4.4416e-07,0.00633080387
4.4575e-07,0.00622565414
4.4734e-07,0.00612345104
4.4893e-07,0.00602410789
4.5052e-07,0.00592754693
4.5211e-07,0.00583368983
4.537e-07,0.00574245807
4.5529e-07,0.00565378125
4.5688e-07,0.00556758581
4.5847e-07,0.00548380584
4.6006e-07,0.00540237241
4.6165e-07,0.00532322379
4.6324e-07,0.0052462977
4.6484e-07,0.00517153386
4.6643e-07,0.00509887168
4.6802e-07,0.00502825484
4.6961e-07,0.00495963293
4.712e-07,0.00489294873
4.7279e-07,0.00482815107
4.7438e-07,0.00476519419
4.7597e-07,0.00470402605
4.7756e-07,0.00464460015
4.7915e-07,0.0045868749
4.8074e-07,0.00453080294
4.8233e-07,0.00447634362
4.8392e-07,0.00442345418
4.8551e-07,0.00437209644
4.871e-07,0.00432223175
4.8869e-07,0.00427382262
4.9028e-07,0.00422683273
4.9187e-07,0.00418122549
4.9346e-07,0.00413696821
4.9505e-07,0.00409402648
4.9664e-07,0.00405237082
4.9823e-07,0.00401196754
4.9982e-07,0.00397278772
5.0141e-07,0.00393480206
5.03e-07,0.00389798215
5.0459e-07,0.00386229934
5.0618e-07,0.00382772905
5.0777e-07,0.00379424322
5.0936e-07,0.00376181774
5.1094e-07,0.00373042815
5.1253e-07,0.00370004983
5.1412e-07,0.00367066162
5.1571e-07,0.00364223937
5.173e-07,0.00361476229
5.1889e-07,0.00358820934
5.2048e-07,0.00356256006
5.2207e-07,0.00353779461
5.2366e-07,0.00351389372
5.2525e-07,0.00349083796
5.2684e-07,0.0034686106
5.2843e-07,0.0034471926
5.3002e-07,0.00342656815
5.316e-07,0.00340671933
5.3319e-07,0.0033876306
5.3478e-07,0.00336928627
5.3637e-07,0.00335167106
5.3796e-07,0.00333477015
5.3955e-07,0.00331856914
5.4114e-07,0.00330305402
5.4273e-07,0.00328821121
5.4431e-07,0.00327402747
5.459e-07,0.00326048998
5.4749e-07,0.00324758624
5.4908e-07,0.00323530414
5.5067e-07,0.00322363187
5.5226e-07,0.003212558
5.5384e-07,0.00320207137
5.5543e-07,0.00319216116
5.5702e-07,0.00318281686
5.5861e-07,0.00317402822
5.602e-07,0.00316578532
5.6178e-07,0.0031580787
5.6337e-07,0.0031508985
5.6496e-07,0.00314423582
5.6655e-07,0.00313808196
5.6814e-07,0.0031324279
5.6972e-07,0.0031272656
5.7131e-07,0.00312258671
5.729e-07,0.00311838315
5.7449e-07,0.00311464749
5.7607e-07,0.00311137205
5.7766e-07,0.00310854964
5.7925e-07,0.00310617298
5.8084e-07,0.00310423525
5.8242e-07,0.00310272979
5.8401e-07,0.00310165
5.856e-07,0.00310098954
5.8718e-07,0.00310074223
5.8877e-07,0.00310090208
5.9036e-07,0.00310146323
5.9195e-07,0.00310242004
5.9353e-07,0.00310376693
5.9512e-07,0.00310549857
5.9671e-07,0.00310760966
5.9829e-07,0.00311009527
5.9988e-07,0.00311295032
6.0147e-07,0.00311617008
6.0305e-07,0.0031197499
6.0464e-07,0.00312368513
6.0623e-07,0.00312797159
6.0781e-07,0.00313260475
6.094e-07,0.00313758042
6.1098e-07,0.00314289487
6.1257e-07,0.00314854384
6.1416e-07,0.00315452367
6.1574e-07,0.00316083046
6.1733e-07,0.00316746098
6.1891e-07,0.00317441135
6.205e-07,0.00318167812
6.2209e-07,0.00318925844
6.2367e-07,0.00319714864
6.2526e-07,0.00320534558
6.2684e-07,0.00321384674
6.2843e-07,0.00322264867
6.3001e-07,0.00323174849
6.316e-07,0.0032411437
6.3318e-07,0.00325083162
6.3477e-07,0.00326080966
6.3635e-07,0.00327107496
6.3794e-07,0.0032816254
6.3952e-07,0.00329245825
6.4111e-07,0.00330357154
6.4269e-07,0.0033149627
6.4428e-07,0.00332662989
6.4586e-07,0.00333857104
6.4745e-07,0.00335078373
6.4903e-07,0.00336326638
6.5062e-07,0.0033760167
6.522e-07,0.00338903322
6.5379e-07,0.00340231377
6.5537e-07,0.00341585704
6.5696e-07,0.00342966093
6.5854e-07,0.00344372427
6.6012e-07,0.0034580455
6.6171e-07,0.0034726227
6.6329e-07,0.00348745441
6.6488e-07,0.00350253968
6.6646e-07,0.0035178767
6.6804e-07,0.00353346467
6.6963e-07,0.00354930233
6.7121e-07,0.00356538752
6.7279e-07,0.00358172057
6.7438e-07,0.00359829886
6.7596e-07,0.00361512235
6.7754e-07,0.00363219003
6.7913e-07,0.0036495004
6.8071e-07,0.00366705254
6.8229e-07,0.00368484608
6.8388e-07,0.00370287964
6.8546e-07,0.00372115297
6.8704e-07,0.00373966473
6.8862e-07,0.00375841419
6.9021e-07,0.00377740123
6.9179e-07,0.00379662462
6.9337e-07,0.00381608373
6.9495e-07,0.00383577858
6.9654e-07,0.00385570801
6.9812e-07,0.00387587214
6.997e-07,0.00389626922
7.0128e-07,0.00391690071
7.0287e-07,0.00393776429
7.0445e-07,0.00395886085
7.0603e-07,0.00398018939
7.0761e-07,0.00400174961
7.0919e-07,0.00402354186
7.1077e-07,0.00404556524
7.1236e-07,0.00406781951
7.1394e-07,0.00409030446
7.1552e-07,0.00411302062
7.171e-07,0.00413596717
7.1868e-07,0.00415914397
7.2026e-07,0.00418255167
7.2184e-07,0.00420618949
7.2342e-07,0.0042300574
7.25e-07,0.0042541554
7.2659e-07,0.00427848349
7.2817e-07,0.00430304248
7.2975e-07,0.00432783094
7.3133e-07,0.00435285048
7.3291e-07,0.00437810125
7.3449e-07,0.00440358184
7.3607e-07,0.00442929319
7.3765e-07,0.00445523631
7.3923e-07,0.00448141062
7.4081e-07,0.00450781637
7.4239e-07,0.00453445382
7.4397e-07,0.00456132326
7.4555e-07,0.00458842586
7.4713e-07,0.00461576026
7.4871e-07,0.00464332853
7.5029e-07,0.00467112934
7.5186e-07,0.00469916481
7.5344e-07,0.00472743452
7.5502e-07,0.00475593891
7.566e-07,0.00478467846
7.5818e-07,0.00481365365
7.5976e-07,0.00484286592
7.6134e-07,0.004872314
7.6292e-07,0.00490199933
7.645e-07,0.00493192342
7.6607e-07,0.00496208504
7.6765e-07,0.00499248666
7.6923e-07,0.00502312705
7.7081e-07,0.00505400876
7.7239e-07,0.00508513058
7.7396e-07,0.00511649512
7.7554e-07,0.00514810118
7.7712e-07,0.00517995047
7.787e-07,0.00521204475
7.8028e-07,0.00524438283
7.8185e-07,0.00527696751
7.8343e-07,0.0053097976
7.8501e-07,0.00534287497
7.8659e-07,0.00537620151
7.8816e-07,0.00540977605
7.8974e-07,0.00544360052
7.9132e-07,0.00547767587
7.9289e-07,0.00551200303
7.9447e-07,0.00554658298
7.9605e-07,0.00558141672
7.9762e-07,0.00561650524
7.992e-07,0.0056518485
8.0077e-07,0.00568744972
8.0235e-07,0.00572330778
8.0393e-07,0.00575942487
8.055e-07,0.00579580211
8.0708e-07,0.00583244062
8.0865e-07,0.00586934156
8.1023e-07,0.00590650612
8.1181e-07,0.00594393432
8.1338e-07,0.00598162852
8.1496e-07,0.00601959116
8.1653e-07,0.00605781994
8.1811e-07,0.00609631969
8.1968e-07,0.00613508933
8.2126e-07,0.00617413257
8.2283e-07,0.00621344958
8.2441e-07,0.00625303925
8.2598e-07,0.00629290541
8.2755e-07,0.00633305195
8.2913e-07,0.00637347533
8.307e-07,0.0064141795
8.3228e-07,0.00645516337
8.3385e-07,0.00649643352
8.3543e-07,0.00653798895
8.37e-07,0.0065798286
8.3857e-07,0.00662195659
8.4015e-07,0.00666437717
8.4172e-07,0.00670708668
8.4329e-07,0.00675008671
8.4487e-07,0.00679338425
8.4644e-07,0.00683697832
8.4801e-07,0.00688086791
8.4959e-07,0.00692505743
8.5116e-07,0.00696954866
8.5273e-07,0.00701434337
8.543e-07,0.00705944336
8.5588e-07,0.00710484764
8.5745e-07,0.00715056371
8.5902e-07,0.00719658778
8.6059e-07,0.00724292457
8.6216e-07,0.00728957312
8.6374e-07,0.00733654118
8.6531e-07,0.00738382492
8.6688e-07,0.00743142924
8.6845e-07,0.0074793562
8.7002e-07,0.00752760787
8.7159e-07,0.00757618633
8.7316e-07,0.00762509068
8.7474e-07,0.00767432607
8.7631e-07,0.0077238947
8.7788e-07,0.00777379565
8.7945e-07,0.00782403738
8.8102e-07,0.00787461591
8.8259e-07,0.00792553667
8.8416e-07,0.00797679878
8.8573e-07,0.00802841099
8.873e-07,0.00808036927
8.8887e-07,0.00813267927
8.9044e-07,0.00818534342
8.9201e-07,0.00823836093
8.9358e-07,0.00829173758
8.9515e-07,0.00834547593
8.9672e-07,0.00839957521
8.9829e-07,0.00845404477
8.9986e-07,0.00850888051
9.0142e-07,0.00856408849
9.0299e-07,0.00861966799
9.0456e-07,0.00867562521
9.0613e-07,0.00873196294
9.077e-07,0.00878868405
9.0927e-07,0.00884578786
9.1083e-07,0.0089032808
9.124e-07,0.00896116584
9.1397e-07,0.00901944234
9.1554e-07,0.00907811694
9.1711e-07,0.00913719274
9.1867e-07,0.00919666912
9.2024e-07,0.00925655295
9.2181e-07,0.00931684742
9.2338e-07,0.00937755201
9.2494e-07,0.00943867375
9.2651e-07,0.00950021599
9.2808e-07,0.00956218213
9.2964e-07,0.0096245717
9.3121e-07,0.00968738811
9.3278e-07,0.00975064272
9.3434e-07,0.00981433124
9.3591e-07,0.00987845721
9.3747e-07,0.00994303232
9.3904e-07,0.0100080522
9.4061e-07,0.0100735207
9.4217e-07,0.0101394455
9.4374e-07,0.0102058307
9.453e-07,0.01027268
9.4687e-07,0.0103399934
9.4843e-07,0.0104077749
9.5e-07,0.0104760326
9.5156e-07,0.0105447708
9.5313e-07,0.0106139938
9.5469e-07,0.0106837014
9.5625e-07,0.0107539024
9.5782e-07,0.0108245967
9.5938e-07,0.0108957931
9.6095e-07,0.0109674918
9.6251e-07,0.0110397019
9.6407e-07,0.0111124278
9.6564e-07,0.01118567
9.672e-07,0.0112594376
9.6876e-07,0.011333731
9.7033e-07,0.0114085597
9.7189e-07,0.0114839241
9.7345e-07,0.0115598338
9.7502e-07,0.0116362942
9.7658e-07,0.0117133056
9.7814e-07,0.0117908734
9.797e-07,0.0118690126
9.8126e-07,0.011947714
9.8283e-07,0.0120269981
9.8439e-07,0.0121068555
9.8595e-07,0.012187307
9.8751e-07,0.0122683484
9.8907e-07,0.0123499855
9.9063e-07,0.0124322295
9.922e-07,0.0125150812
9.9376e-07,0.0125985522
9.9532e-07,0.0126826434
9.9688e-07,0.0127673665
9.9844e-07,0.012852728
1e-06,0.0129387293
