wavelength,k
3.26e-07,1.4
3.35e-07,1.45
3.44e-07,1.5
3.54e-07,1.55
3.65e-07,1.61
3.76e-07,1.66
3.87e-07,1.72
4e-07,1.78
4.13e-07,1.84
4.28e-07,1.9
4.43e-07,1.99
4.59e-07,2.08
4.77e-07,2.19
4.96e-07,2.33
5.17e-07,2.43
5.39e-07,2.58
5.64e-07,2.69
5.9e-07,2.86
6.2e-07,3.04
6.53e-07,3.22
6.89e-07,3.42
7.29e-07,3.62
7.75e-07,3.88
8.27e-07,4.14
8.86e-07,4.43
9.54e-07,4.81
1.033e-06,5.2
1.127e-06,5.7
1.24e-06,6.28
1.378e-06,6.98
1.55e-06,7.87
1.771e-06,8.99
2.066e-06,10.5
