wavelength,k
3.26e-07,1.08
3.35e-07,1.14
3.44e-07,1.19
3.54e-07,1.25
3.65e-07,1.32
3.76e-07,1.38
3.87e-07,1.44
4e-07,1.5
4.13e-07,1.56
4.28e-07,1.64
4.43e-07,1.71
4.59e-07,1.8
4.77e-07,1.88
4.96e-07,1.99
5.17e-07,2.1
5.39e-07,2.23
5.64e-07,2.36
5.9e-07,2.48
6.2e-07,2.62
6.53e-07,2.78
6.89e-07,2.96
7.29e-07,3.15
7.75e-07,3.4
8.27e-07,3.64
8.86e-07,3.87
9.54e-07,4.23
1.033e-06,4.62
1.127e-06,5.05
1.24e-06,5.59
1.378e-06,6.24
1.55e-06,7.02
1.771e-06,8.09
2.066e-06,9.46
