wavelength,n
4.5e-16,2.09
5e-16,2.33
5.5e-16,2.45
6e-16,2.6
6.5e-16,2.76
7e-16,2.9
7.4e-16,3.12
8e-16,3.29
8.5e-16,3.33
9e-16,3.52
1e-15,3.58
1.2e-15,4.04
1.5e-15,4.32
1.7e-15,4.48
2e-15,4.7
2.25e-15,4.93
2.5e-15,5.2
2.75e-15,5.4
3e-15,5.7
3.5e-15,6.3
4e-15,6.9
4.5e-15,7.7
5e-15,8.4
5.5e-15,9.0
6e-15,9.6
6.5e-15,10.2
7e-15,10.8
7.5e-15,11.8
8e-15,12.3
9e-15,13.2
1e-14,13.6
