wavelength,n
1e-15,3.1
1.25e-15,3.35
1.5e-15,3.6
1.8e-15,3.9
2e-15,4.25
2.5e-15,4.9
3e-15,5.6
3.5e-15,6.35
4e-15,7.1
4.5e-15,7.9
5e-15,8.6
5.5e-15,9.3
6e-15,10.1
6.5e-15,10.8
7e-15,11.6
7.5e-15,12.4
8e-15,13.2
8.5e-15,13.9
9e-15,14.8
9.5e-15,15.6
1e-14,16.4
