wavelength,n
2.5157e-07,1.61929943
2.5316e-07,1.62580553
2.5475e-07,1.63233784
2.5634e-07,1.63879109
2.5793e-07,1.64505646
2.5952e-07,1.65102488
2.6112e-07,1.65659248
2.6271e-07,1.66166495
2.643e-07,1.6661614
2.6589e-07,1.67001759
2.6748e-07,1.67318804
2.6907e-07,1.67564678
2.7067e-07,1.67738674
2.7226e-07,1.67841839
2.7385e-07,1.67876731
2.7544e-07,1.67847145
2.7703e-07,1.67757803
2.7862e-07,1.67614055
2.8022e-07,1.67421606
2.8181e-07,1.67186278
2.834e-07,1.66913816
2.8499e-07,1.66609732
2.8658e-07,1.66279216
2.8818e-07,1.65927052
2.8977e-07,1.65557575
2.9136e-07,1.65174684
2.9295e-07,1.6478182
2.9454e-07,1.64382001
2.9614e-07,1.63977838
2.9773e-07,1.63571572
2.9932e-07,1.6316512
3.0091e-07,1.62760096
3.025e-07,1.62357851
3.0409e-07,1.61959495
3.0569e-07,1.6156596
3.0728e-07,1.61177977
3.0887e-07,1.60796146
3.1046e-07,1.60420941
3.1205e-07,1.60052711
3.1365e-07,1.59691729
3.1524e-07,1.59338187
3.1683e-07,1.58992216
3.1842e-07,1.58653892
3.2001e-07,1.58323243
3.2161e-07,1.58000279
3.232e-07,1.57684966
3.2479e-07,1.57377256
3.2638e-07,1.57077082
3.2797e-07,1.56784369
3.2957e-07,1.56499037
3.3116e-07,1.56220994
3.3275e-07,1.5595016
3.3434e-07,1.55686461
3.3593e-07,1.55429823
3.3752e-07,1.55180207
3.3912e-07,1.5493759
3.4071e-07,1.54702001
3.423e-07,1.54473557
3.4389e-07,1.54252591
3.4548e-07,1.54040226
3.4708e-07,1.5383554
3.4867e-07,1.53637098
3.5026e-07,1.53444205
3.5185e-07,1.53256361
3.5344e-07,1.53073176
3.5504e-07,1.52894325
3.5663e-07,1.52719532
3.5822e-07,1.52548559
3.5981e-07,1.52381191
3.614e-07,1.52217231
3.6299e-07,1.52056512
3.6459e-07,1.51898876
3.6618e-07,1.51744175
3.6777e-07,1.51592282
3.6936e-07,1.51443067
3.7095e-07,1.51296421
3.7254e-07,1.51152238
3.7414e-07,1.51010416
3.7573e-07,1.50870861
3.7732e-07,1.5073349
3.7891e-07,1.50598217
3.805e-07,1.50464966
3.821e-07,1.50333664
3.8369e-07,1.5020424
3.8528e-07,1.5007663
3.8687e-07,1.49950768
3.8846e-07,1.49826598
3.9005e-07,1.4970406
3.9164e-07,1.49583103
3.9324e-07,1.49463674
3.9483e-07,1.49345722
3.9642e-07,1.49229203
3.9801e-07,1.4911407
3.996e-07,1.49000279
4.0119e-07,1.48887789
4.0279e-07,1.48776562
4.0438e-07,1.48666557
4.0597e-07,1.48557738
4.0756e-07,1.48450069
4.0915e-07,1.48343517
4.1074e-07,1.48238049
4.1233e-07,1.48133632
4.1393e-07,1.48030234
4.1552e-07,1.4792783
4.1711e-07,1.47826391
4.187e-07,1.47725887
4.2029e-07,1.47626289
4.2188e-07,1.47527578
4.2347e-07,1.47429723
4.2506e-07,1.47332704
4.2665e-07,1.47236494
4.2825e-07,1.47141072
4.2984e-07,1.47046421
4.3143e-07,1.46952511
4.3302e-07,1.46859327
4.3461e-07,1.46766849
4.362e-07,1.46675056
4.3779e-07,1.46583928
4.3938e-07,1.46493449
4.4097e-07,1.46403603
4.4257e-07,1.46314369
4.4416e-07,1.46225733
4.4575e-07,1.46137676
4.4734e-07,1.46050185
4.4893e-07,1.45963242
4.5052e-07,1.45876834
4.5211e-07,1.45790948
4.537e-07,1.45705565
4.5529e-07,1.45620676
4.5688e-07,1.45536264
4.5847e-07,1.45452318
4.6006e-07,1.45368824
4.6165e-07,1.45285771
4.6324e-07,1.45203147
4.6484e-07,1.4512094
4.6643e-07,1.45039137
4.6802e-07,1.44957725
4.6961e-07,1.448767
4.712e-07,1.44796046
4.7279e-07,1.44715751
4.7438e-07,1.44635811
4.7597e-07,1.44556211
4.7756e-07,1.44476942
4.7915e-07,1.44397998
4.8074e-07,1.44319365
4.8233e-07,1.44241038
4.8392e-07,1.44163004
4.8551e-07,1.44085258
4.871e-07,1.4400779
4.8869e-07,1.43930593
4.9028e-07,1.43853659
4.9187e-07,1.43776978
4.9346e-07,1.43700543
4.9505e-07,1.43624346
4.9664e-07,1.43548383
4.9823e-07,1.43472642
4.9982e-07,1.4339712
5.0141e-07,1.43321808
5.03e-07,1.432467
5.0459e-07,1.43171788
5.0618e-07,1.43097069
5.0777e-07,1.43022532
5.0936e-07,1.42948174
5.1094e-07,1.42873988
5.1253e-07,1.42799965
5.1412e-07,1.42726106
5.1571e-07,1.42652399
5.173e-07,1.42578841
5.1889e-07,1.42505427
5.2048e-07,1.42432151
5.2207e-07,1.42359007
5.2366e-07,1.42285991
5.2525e-07,1.42213096
5.2684e-07,1.4214032
5.2843e-07,1.42067654
5.3002e-07,1.41995099
5.316e-07,1.41922644
5.3319e-07,1.41850287
5.3478e-07,1.41778024
5.3637e-07,1.41705851
5.3796e-07,1.41633763
5.3955e-07,1.41561755
5.4114e-07,1.41489823
5.4273e-07,1.41417964
5.4431e-07,1.41346172
5.459e-07,1.41274445
5.4749e-07,1.41202778
5.4908e-07,1.41131167
5.5067e-07,1.41059608
5.5226e-07,1.40988098
5.5384e-07,1.40916633
5.5543e-07,1.40845209
5.5702e-07,1.40773823
5.5861e-07,1.40702471
5.602e-07,1.4063115
5.6178e-07,1.40559859
5.6337e-07,1.40488589
5.6496e-07,1.4041734
5.6655e-07,1.40346111
5.6814e-07,1.40274893
5.6972e-07,1.40203689
5.7131e-07,1.40132493
5.729e-07,1.400613
5.7449e-07,1.39990111
5.7607e-07,1.39918921
5.7766e-07,1.3984773
5.7925e-07,1.39776529
5.8084e-07,1.39705319
5.8242e-07,1.39634099
5.8401e-07,1.39562863
5.856e-07,1.3949161
5.8718e-07,1.39420336
5.8877e-07,1.3934904
5.9036e-07,1.39277719
5.9195e-07,1.39206368
5.9353e-07,1.39134989
5.9512e-07,1.39063576
5.9671e-07,1.3899213
5.9829e-07,1.38920643
5.9988e-07,1.38849118
6.0147e-07,1.3877755
6.0305e-07,1.38705937
6.0464e-07,1.38634278
6.0623e-07,1.38562568
6.0781e-07,1.38490807
6.094e-07,1.38418994
6.1098e-07,1.38347123
6.1257e-07,1.38275195
6.1416e-07,1.38203207
6.1574e-07,1.38131157
6.1733e-07,1.38059041
6.1891e-07,1.37986859
6.205e-07,1.37914611
6.2209e-07,1.37842289
6.2367e-07,1.37769896
6.2526e-07,1.37697431
6.2684e-07,1.37624886
6.2843e-07,1.37552265
6.3001e-07,1.37479564
6.316e-07,1.37406781
6.3318e-07,1.37333913
6.3477e-07,1.37260959
6.3635e-07,1.37187919
6.3794e-07,1.37114788
6.3952e-07,1.37041568
6.4111e-07,1.36968254
6.4269e-07,1.36894846
6.4428e-07,1.36821342
6.4586e-07,1.36747738
6.4745e-07,1.36674036
6.4903e-07,1.36600231
6.5062e-07,1.36526325
6.522e-07,1.36452312
6.5379e-07,1.36378195
6.5537e-07,1.36303968
6.5696e-07,1.36229633
6.5854e-07,1.36155186
6.6012e-07,1.36080624
6.6171e-07,1.3600595
6.6329e-07,1.3593116
6.6488e-07,1.35856252
6.6646e-07,1.35781226
6.6804e-07,1.35706078
6.6963e-07,1.35630807
6.7121e-07,1.35555416
6.7279e-07,1.35479896
6.7438e-07,1.35404253
6.7596e-07,1.3532848
6.7754e-07,1.35252576
6.7913e-07,1.35176543
6.8071e-07,1.35100378
6.8229e-07,1.35024078
6.8388e-07,1.34947643
6.8546e-07,1.34871071
6.8704e-07,1.34794361
6.8862e-07,1.34717513
6.9021e-07,1.34640522
6.9179e-07,1.3456339
6.9337e-07,1.34486115
6.9495e-07,1.34408693
6.9654e-07,1.34331126
6.9812e-07,1.34253409
6.997e-07,1.34175547
7.0128e-07,1.3409753
7.0287e-07,1.34019364
7.0445e-07,1.33941044
7.0603e-07,1.3386257
7.0761e-07,1.33783941
7.0919e-07,1.33705153
7.1077e-07,1.33626207
7.1236e-07,1.33547102
7.1394e-07,1.33467837
7.1552e-07,1.33388408
7.171e-07,1.33308815
7.1868e-07,1.33229059
7.2026e-07,1.33149134
7.2184e-07,1.33069042
7.2342e-07,1.32988782
7.25e-07,1.32908353
7.2659e-07,1.32827752
7.2817e-07,1.32746978
7.2975e-07,1.32666032
7.3133e-07,1.32584909
7.3291e-07,1.32503608
7.3449e-07,1.32422132
7.3607e-07,1.32340477
7.3765e-07,1.3225864
7.3923e-07,1.32176623
7.4081e-07,1.32094422
7.4239e-07,1.32012039
7.4397e-07,1.3192947
7.4555e-07,1.31846713
7.4713e-07,1.31763771
7.4871e-07,1.31680638
7.5029e-07,1.31597317
7.5186e-07,1.31513803
7.5344e-07,1.31430097
7.5502e-07,1.31346196
7.566e-07,1.31262101
7.5818e-07,1.31177809
7.5976e-07,1.31093318
7.6134e-07,1.3100863
7.6292e-07,1.30923743
7.645e-07,1.30838651
7.6607e-07,1.3075336
7.6765e-07,1.30667862
7.6923e-07,1.30582162
7.7081e-07,1.30496252
7.7239e-07,1.30410138
7.7396e-07,1.30323813
7.7554e-07,1.3023728
7.7712e-07,1.30150535
7.787e-07,1.30063575
7.8028e-07,1.29976404
7.8185e-07,1.29889015
7.8343e-07,1.29801412
7.8501e-07,1.29713592
7.8659e-07,1.29625549
7.8816e-07,1.29537289
7.8974e-07,1.29448808
7.9132e-07,1.29360103
7.9289e-07,1.29271174
7.9447e-07,1.29182019
7.9605e-07,1.29092638
7.9762e-07,1.29003029
7.992e-07,1.28913192
8.0077e-07,1.28823123
8.0235e-07,1.28732824
8.0393e-07,1.28642291
8.055e-07,1.28551524
8.0708e-07,1.2846052
8.0865e-07,1.2836928
8.1023e-07,1.282778
8.1181e-07,1.28186083
8.1338e-07,1.28094125
8.1496e-07,1.28001921
8.1653e-07,1.27909478
8.1811e-07,1.27816787
8.1968e-07,1.27723852
8.2126e-07,1.27630666
8.2283e-07,1.27537231
8.2441e-07,1.27443549
8.2598e-07,1.27349616
8.2755e-07,1.27255423
8.2913e-07,1.2716098
8.307e-07,1.27066281
8.3228e-07,1.26971329
8.3385e-07,1.26876112
8.3543e-07,1.26780634
8.37e-07,1.266849
8.3857e-07,1.26588901
8.4015e-07,1.26492632
8.4172e-07,1.26396101
8.4329e-07,1.26299308
8.4487e-07,1.2620224
8.4644e-07,1.261049
8.4801e-07,1.26007294
8.4959e-07,1.25909414
8.5116e-07,1.25811257
8.5273e-07,1.25712824
8.543e-07,1.25614112
8.5588e-07,1.25515125
8.5745e-07,1.25415851
8.5902e-07,1.25316299
8.6059e-07,1.25216462
8.6216e-07,1.25116345
8.6374e-07,1.25015934
8.6531e-07,1.24915239
8.6688e-07,1.24814253
8.6845e-07,1.24712974
8.7002e-07,1.246114
8.7159e-07,1.2450953
8.7316e-07,1.24407368
8.7474e-07,1.24304907
8.7631e-07,1.24202145
8.7788e-07,1.24099086
8.7945e-07,1.23995717
8.8102e-07,1.23892047
8.8259e-07,1.23788069
8.8416e-07,1.23683788
8.8573e-07,1.2357919
8.873e-07,1.23474284
8.8887e-07,1.23369064
8.9044e-07,1.23263526
8.9201e-07,1.23157677
8.9358e-07,1.23051507
8.9515e-07,1.22945015
8.9672e-07,1.22838206
8.9829e-07,1.22731064
8.9986e-07,1.22623601
9.0142e-07,1.22515809
9.0299e-07,1.22407691
9.0456e-07,1.22299241
9.0613e-07,1.22190454
9.077e-07,1.22081331
9.0927e-07,1.21971875
9.1083e-07,1.21862078
9.124e-07,1.21751938
9.1397e-07,1.21641459
9.1554e-07,1.21530633
9.1711e-07,1.21419458
9.1867e-07,1.21307938
9.2024e-07,1.21196065
9.2181e-07,1.21083837
9.2338e-07,1.20971258
9.2494e-07,1.20858319
9.2651e-07,1.20745018
9.2808e-07,1.20631354
9.2964e-07,1.2051733
9.3121e-07,1.20402944
9.3278e-07,1.20288181
9.3434e-07,1.20173052
9.3591e-07,1.20057556
9.3747e-07,1.19941674
9.3904e-07,1.1982542
9.4061e-07,1.19708791
9.4217e-07,1.19591778
9.4374e-07,1.19474377
9.453e-07,1.19356588
9.4687e-07,1.19238414
9.4843e-07,1.19119853
9.5e-07,1.19000896
9.5156e-07,1.1888154
9.5313e-07,1.18761782
9.5469e-07,1.18641627
9.5625e-07,1.18521066
9.5782e-07,1.18400103
9.5938e-07,1.18278728
9.6095e-07,1.18156946
9.6251e-07,1.18034746
9.6407e-07,1.17912127
9.6564e-07,1.17789093
9.672e-07,1.17665633
9.6876e-07,1.17541752
9.7033e-07,1.17417441
9.7189e-07,1.17292703
9.7345e-07,1.17167529
9.7502e-07,1.17041915
9.7658e-07,1.16915866
9.7814e-07,1.16789379
9.797e-07,1.16662436
9.8126e-07,1.16535057
9.8283e-07,1.16407215
9.8439e-07,1.16278931
9.8595e-07,1.16150178
9.8751e-07,1.16020969
9.8907e-07,1.15891301
9.9063e-07,1.15761162
9.922e-07,1.15630557
9.9376e-07,1.15499475
9.9532e-07,1.1536792
9.9688e-07,1.15235881
9.9844e-07,1.15103355
1e-06,1.14970346
