wavelength,k
8.26561e-14,1.23546e-16
1.23984e-13,5.00417e-16
1.5498e-13,1.0806e-15
2.0664e-13,2.91538e-15
2.47968e-13,5.46845e-15
3.0996e-13,1.18086e-14
4.13281e-13,3.18586e-14
6.19921e-13,1.29041e-13
8.26561e-13,3.48144e-13
9.91873e-13,6.53022e-13
1.23984e-12,1.41013e-12
1.5498e-12,3.04504e-12
2.0664e-12,8.21529e-12
2.47968e-12,1.54096e-11
3.0996e-12,3.32755e-11
4.27366e-12,1.0458e-10
4.56854e-12,1.27617e-10
4.88377e-12,1.57024e-10
5.22075e-12,1.94035e-10
5.58098e-12,2.40749e-10
5.96607e-12,2.99808e-10
6.37773e-12,3.7464e-10
6.81779e-12,4.69608e-10
7.28822e-12,5.9028e-10
7.7911e-12,7.43907e-10
8.32869e-12,9.39716e-10
8.90337e-12,1.18926e-09
9.5177e-12,1.50807e-09
1.01744e-11,1.91112e-09
1.08765e-11,2.42147e-09
1.16269e-11,3.07179e-09
1.24292e-11,3.901e-09
1.32868e-11,4.95902e-09
1.42036e-11,6.30937e-09
1.51836e-11,8.03076e-09
1.62313e-11,1.01888e-08
1.73513e-11,1.29303e-08
1.85485e-11,1.63953e-08
1.91985e-11,1.84823e-08
1.94851e-11,1.94574e-08
1.96021e-11,4.3148e-09
1.96809e-11,4.37631e-09
1.98284e-11,4.49383e-09
1.99821e-11,4.61884e-09
2.11965e-11,5.69988e-09
2.26591e-11,7.24499e-09
2.42226e-11,9.22309e-09
2.58939e-11,1.17599e-08
2.76806e-11,1.49711e-08
2.95906e-11,1.90468e-08
3.16323e-11,2.42475e-08
3.38149e-11,3.0869e-08
3.61482e-11,3.93502e-08
3.86424e-11,5.02263e-08
4.13281e-11,6e-08
4.15617e-11,7e-08
4.17967e-11,7e-08
4.2033e-11,7e-08
4.22707e-11,7e-08
4.25097e-11,7e-08
4.275e-11,7e-08
4.29918e-11,7e-08
4.32348e-11,8e-08
4.34793e-11,8e-08
4.37251e-11,8e-08
4.39723e-11,8e-08
4.4221e-11,8e-08
4.4471e-11,8e-08
4.47224e-11,9e-08
4.49753e-11,9e-08
4.52296e-11,9e-08
4.54853e-11,9e-08
4.57425e-11,9e-08
4.60011e-11,1e-07
4.62612e-11,1e-07
4.65228e-11,1e-07
4.67858e-11,1e-07
4.70503e-11,1e-07
4.73164e-11,1.1e-07
4.75839e-11,1.1e-07
4.78529e-11,1.1e-07
4.81235e-11,1.1e-07
4.83956e-11,1.2e-07
4.86692e-11,1.2e-07
4.89444e-11,1.2e-07
4.92211e-11,1.2e-07
4.94994e-11,1.3e-07
4.97793e-11,1.3e-07
5.00607e-11,1.3e-07
5.03438e-11,1.3e-07
5.06284e-11,1.4e-07
5.09147e-11,1.4e-07
5.12026e-11,1.4e-07
5.14921e-11,1.5e-07
5.17832e-11,1.5e-07
5.2076e-11,1.5e-07
5.23704e-11,1.6e-07
5.26665e-11,1.6e-07
5.29643e-11,1.6e-07
5.32638e-11,1.7e-07
5.35649e-11,1.7e-07
5.38678e-11,1.7e-07
5.41723e-11,1.8e-07
5.44786e-11,1.8e-07
5.47866e-11,1.8e-07
5.50964e-11,1.9e-07
5.54079e-11,1.9e-07
5.57212e-11,2e-07
5.60363e-11,2e-07
5.63531e-11,2e-07
5.66717e-11,2.1e-07
5.69921e-11,2.1e-07
5.73144e-11,2.2e-07
5.76384e-11,2.2e-07
5.79643e-11,2.3e-07
5.8292e-11,2.3e-07
5.86216e-11,2.4e-07
5.89531e-11,2.4e-07
5.92864e-11,2.5e-07
5.96216e-11,2.5e-07
5.99587e-11,2.6e-07
6.02977e-11,2.6e-07
6.06386e-11,2.7e-07
6.09815e-11,2.7e-07
6.13263e-11,2.8e-07
6.1673e-11,2.8e-07
6.20217e-11,2.9e-07
6.23724e-11,3e-07
6.2725e-11,3e-07
6.30797e-11,3.1e-07
6.34364e-11,3.2e-07
6.3795e-11,3.2e-07
6.41557e-11,3.3e-07
6.45185e-11,3.4e-07
6.48832e-11,3.4e-07
6.52501e-11,3.5e-07
6.5619e-11,3.6e-07
6.599e-11,3.7e-07
6.63631e-11,3.7e-07
6.67384e-11,3.8e-07
6.71157e-11,3.9e-07
6.74952e-11,4e-07
6.78768e-11,4e-07
6.82606e-11,4.1e-07
6.86465e-11,4.2e-07
6.90346e-11,4.3e-07
6.9425e-11,4.4e-07
6.98175e-11,4.5e-07
7.02123e-11,4.6e-07
7.06092e-11,4.7e-07
7.10085e-11,4.8e-07
7.14099e-11,4.9e-07
7.18137e-11,5e-07
7.22197e-11,5.1e-07
7.26281e-11,5.2e-07
7.30387e-11,5.3e-07
7.34517e-11,5.4e-07
7.3867e-11,5.5e-07
7.42846e-11,5.6e-07
7.47046e-11,5.7e-07
7.5127e-11,5.9e-07
7.55518e-11,6e-07
7.59789e-11,6.1e-07
7.64085e-11,6.2e-07
7.68405e-11,6.4e-07
7.7275e-11,6.5e-07
7.77119e-11,6.6e-07
7.81513e-11,6.8e-07
7.85932e-11,6.9e-07
7.90375e-11,7e-07
7.94844e-11,7.2e-07
7.99338e-11,7.3e-07
8.03858e-11,7.5e-07
8.08403e-11,7.6e-07
8.12973e-11,7.8e-07
8.1757e-11,7.9e-07
8.22193e-11,8.1e-07
8.26841e-11,8.3e-07
8.31516e-11,8.4e-07
8.36218e-11,8.6e-07
8.40946e-11,8.8e-07
8.457e-11,9e-07
8.50482e-11,9.1e-07
8.55291e-11,9.3e-07
8.60126e-11,9.5e-07
8.6499e-11,9.7e-07
8.6988e-11,9.9e-07
8.74799e-11,1.01e-06
8.79745e-11,1.03e-06
8.84719e-11,1.05e-06
8.89721e-11,1.07e-06
8.94752e-11,1.09e-06
8.99811e-11,1.12e-06
9.04898e-11,1.14e-06
9.10014e-11,1.16e-06
9.1516e-11,1.19e-06
9.20334e-11,1.21e-06
9.25538e-11,1.23e-06
9.30771e-11,1.26e-06
9.36033e-11,1.28e-06
9.41326e-11,1.31e-06
9.46648e-11,1.34e-06
9.52e-11,1.36e-06
9.57383e-11,1.39e-06
9.62796e-11,1.42e-06
9.6824e-11,1.45e-06
9.73714e-11,1.47e-06
9.79219e-11,1.5e-06
9.84756e-11,1.53e-06
9.90324e-11,1.56e-06
9.95923e-11,1.59e-06
1.00155e-10,1.63e-06
1.00722e-10,1.66e-06
1.01291e-10,1.69e-06
1.01864e-10,1.72e-06
1.0244e-10,1.76e-06
1.03019e-10,1.79e-06
1.03601e-10,1.83e-06
1.04187e-10,1.86e-06
1.04776e-10,1.9e-06
1.05369e-10,1.94e-06
1.05964e-10,1.97e-06
1.06564e-10,2.01e-06
1.07166e-10,2.05e-06
1.07772e-10,2.09e-06
1.08381e-10,2.13e-06
1.08994e-10,2.17e-06
1.0961e-10,2.22e-06
1.1023e-10,2.26e-06
1.10853e-10,2.3e-06
1.1148e-10,2.35e-06
1.1211e-10,2.39e-06
1.12744e-10,2.44e-06
1.13382e-10,2.48e-06
1.14023e-10,2.53e-06
1.14668e-10,2.3e-06
1.15316e-10,2.35e-06
1.15968e-10,2.41e-06
1.16624e-10,2.46e-06
1.17283e-10,2.51e-06
1.17946e-10,2.57e-06
1.18613e-10,2.63e-06
1.19284e-10,2.68e-06
1.19958e-10,1.95e-06
1.20636e-10,1.99e-06
1.21318e-10,2.04e-06
1.22004e-10,2.08e-06
1.22694e-10,2.13e-06
1.23388e-10,2.18e-06
1.24085e-10,2.22e-06
1.24787e-10,2.27e-06
1.25493e-10,2.32e-06
1.26202e-10,2.37e-06
1.26916e-10,2.43e-06
1.27633e-10,2.48e-06
1.28355e-10,2.53e-06
1.29081e-10,2.59e-06
1.2981e-10,2.65e-06
1.30544e-10,2.7e-06
1.31283e-10,2.76e-06
1.32025e-10,2.82e-06
1.32771e-10,2.89e-06
1.33522e-10,2.95e-06
1.34277e-10,1.11e-06
1.35036e-10,1.13e-06
1.358e-10,1.15e-06
1.36567e-10,1.18e-06
1.3734e-10,1.2e-06
1.38116e-10,1.22e-06
1.38897e-10,1.25e-06
1.39682e-10,1.27e-06
1.40472e-10,1.3e-06
1.41266e-10,1.33e-06
1.42065e-10,1.35e-06
1.42868e-10,1.38e-06
1.43676e-10,1.41e-06
1.44488e-10,1.44e-06
1.45305e-10,1.47e-06
1.46127e-10,1.5e-06
1.46953e-10,1.53e-06
1.47784e-10,1.56e-06
1.4862e-10,1.59e-06
1.4946e-10,1.63e-06
1.50305e-10,1.66e-06
1.51155e-10,1.69e-06
1.52009e-10,1.73e-06
1.52869e-10,1.76e-06
1.53733e-10,1.8e-06
1.54602e-10,1.83e-06
1.55476e-10,1.87e-06
1.56356e-10,1.91e-06
1.5724e-10,1.95e-06
1.58129e-10,1.99e-06
1.59023e-10,2.03e-06
1.59922e-10,2.07e-06
1.60826e-10,2.11e-06
1.61735e-10,2.16e-06
1.6265e-10,2.2e-06
1.63569e-10,2.24e-06
1.64494e-10,2.29e-06
1.65424e-10,2.34e-06
1.6636e-10,2.38e-06
1.673e-10,2.43e-06
1.68246e-10,2.48e-06
1.69197e-10,2.53e-06
1.70154e-10,2.58e-06
1.71116e-10,2.64e-06
1.72084e-10,2.69e-06
1.73057e-10,2.74e-06
1.74035e-10,2.8e-06
1.75019e-10,2.86e-06
1.76009e-10,2.91e-06
1.77004e-10,2.97e-06
1.78005e-10,3.03e-06
1.79011e-10,3.09e-06
1.80023e-10,3.16e-06
1.81041e-10,3.22e-06
1.82065e-10,3.29e-06
1.83094e-10,3.35e-06
1.84129e-10,3.42e-06
1.8517e-10,3.49e-06
1.86217e-10,3.56e-06
1.8727e-10,3.63e-06
1.88329e-10,3.71e-06
1.89394e-10,3.78e-06
1.90465e-10,3.86e-06
1.91541e-10,3.93e-06
1.92624e-10,4.01e-06
1.93714e-10,4.09e-06
1.94809e-10,4.18e-06
1.9591e-10,4.26e-06
1.97018e-10,4.35e-06
1.98132e-10,4.44e-06
1.99252e-10,4.52e-06
2.00379e-10,4.62e-06
2.01512e-10,4.71e-06
2.02651e-10,4.8e-06
2.03797e-10,4.9e-06
2.04949e-10,5e-06
2.06108e-10,5.1e-06
2.07273e-10,5.2e-06
2.08445e-10,5.31e-06
2.09624e-10,5.41e-06
2.10809e-10,5.52e-06
2.12001e-10,5.63e-06
2.13199e-10,5.75e-06
2.14405e-10,5.86e-06
2.15617e-10,5.98e-06
2.16836e-10,6.1e-06
2.18062e-10,6.22e-06
2.19295e-10,6.35e-06
2.20535e-10,6.47e-06
2.21782e-10,6.6e-06
2.23036e-10,6.74e-06
2.24297e-10,6.87e-06
2.25565e-10,7.01e-06
2.26841e-10,7.15e-06
2.28123e-10,7.29e-06
2.29413e-10,7.44e-06
2.3071e-10,7.59e-06
2.32014e-10,7.74e-06
2.33326e-10,7.89e-06
2.34645e-10,8.05e-06
2.35972e-10,8.21e-06
2.37306e-10,8.38e-06
2.38648e-10,8.55e-06
2.39997e-10,8.72e-06
2.41354e-10,8.89e-06
2.42719e-10,9.07e-06
2.44091e-10,9.25e-06
2.45471e-10,9.43e-06
2.46859e-10,9.62e-06
2.48255e-10,9.81e-06
2.49659e-10,1.001e-05
2.5107e-10,1.021e-05
2.5249e-10,1.041e-05
2.53917e-10,1.062e-05
2.55353e-10,1.083e-05
2.56797e-10,1.105e-05
2.58249e-10,1.127e-05
2.59709e-10,1.149e-05
2.61177e-10,1.172e-05
2.62654e-10,1.196e-05
2.64139e-10,1.219e-05
2.65633e-10,1.244e-05
2.67134e-10,1.268e-05
2.68645e-10,1.294e-05
2.70164e-10,1.319e-05
2.71691e-10,1.346e-05
2.73227e-10,1.372e-05
2.74772e-10,1.4e-05
2.76326e-10,1.427e-05
2.77888e-10,1.456e-05
2.79459e-10,1.485e-05
2.81039e-10,1.514e-05
2.82628e-10,1.544e-05
2.84226e-10,1.575e-05
2.85833e-10,1.606e-05
2.8745e-10,1.638e-05
2.89075e-10,1.67e-05
2.90709e-10,1.703e-05
2.92353e-10,1.737e-05
2.94006e-10,1.771e-05
2.95668e-10,1.806e-05
2.9734e-10,1.842e-05
2.99021e-10,1.879e-05
3.00712e-10,1.916e-05
3.02412e-10,1.954e-05
3.04122e-10,1.992e-05
3.05841e-10,2.031e-05
3.07571e-10,2.072e-05
3.0931e-10,2.112e-05
3.11058e-10,2.154e-05
3.12817e-10,2.197e-05
3.14586e-10,2.24e-05
3.16364e-10,2.284e-05
3.18153e-10,2.329e-05
3.19952e-10,2.375e-05
3.21761e-10,2.422e-05
3.2358e-10,2.469e-05
3.2541e-10,2.518e-05
3.2725e-10,2.567e-05
3.291e-10,2.618e-05
3.30961e-10,2.669e-05
3.32832e-10,2.722e-05
3.34714e-10,2.775e-05
3.36606e-10,2.83e-05
3.38509e-10,2.885e-05
3.40423e-10,2.942e-05
3.42348e-10,2.999e-05
3.44284e-10,3.058e-05
3.4623e-10,3.118e-05
3.48188e-10,3.179e-05
3.50157e-10,3.241e-05
3.52136e-10,3.305e-05
3.54127e-10,3.369e-05
3.5613e-10,3.435e-05
3.58143e-10,3.502e-05
3.60168e-10,3.571e-05
3.62205e-10,3.64e-05
3.64253e-10,3.711e-05
3.66312e-10,3.784e-05
3.68383e-10,3.857e-05
3.70466e-10,3.933e-05
3.72561e-10,4.009e-05
3.74667e-10,4.087e-05
3.76785e-10,4.167e-05
3.78916e-10,4.248e-05
3.81058e-10,4.33e-05
3.83213e-10,4.415e-05
3.85379e-10,4.5e-05
3.87558e-10,4.588e-05
3.8975e-10,4.677e-05
3.91953e-10,4.767e-05
3.94169e-10,4.86e-05
3.96398e-10,4.954e-05
3.98639e-10,5.05e-05
4.00893e-10,5.148e-05
4.0316e-10,5.247e-05
4.05439e-10,5.349e-05
4.07732e-10,5.452e-05
4.10037e-10,5.557e-05
4.12355e-10,5.665e-05
4.14687e-10,5.774e-05
4.17032e-10,5.885e-05
4.19389e-10,5.999e-05
4.21761e-10,6.115e-05
4.24145e-10,6.232e-05
4.26543e-10,6.352e-05
4.28955e-10,6.474e-05
4.3138e-10,6.599e-05
4.33819e-10,6.726e-05
4.36272e-10,6.855e-05
4.38739e-10,6.986e-05
4.4122e-10,7.12e-05
4.43714e-10,7.257e-05
4.46223e-10,7.396e-05
4.48746e-10,7.537e-05
4.51283e-10,7.682e-05
4.53835e-10,7.829e-05
4.56401e-10,7.978e-05
4.58981e-10,8.131e-05
4.61576e-10,8.286e-05
4.64186e-10,8.444e-05
4.66811e-10,8.605e-05
4.6945e-10,8.769e-05
4.72104e-10,8.936e-05
4.74774e-10,9.106e-05
4.77458e-10,9.278e-05
4.80158e-10,9.455e-05
4.82872e-10,9.634e-05
4.85603e-10,9.817e-05
4.88348e-10,0.00010003
4.91109e-10,0.00010092
4.93886e-10,0.00010148
4.96678e-10,0.00010204
4.99487e-10,0.00010365
5.02311e-10,0.00010568
5.05151e-10,0.00010775
5.08007e-10,0.00010986
5.10879e-10,0.00011201
5.13768e-10,0.00011421
5.16673e-10,0.00011645
5.19594e-10,0.00011873
5.22532e-10,0.00012106
5.25486e-10,0.00012343
5.28457e-10,0.00012586
5.31445e-10,0.00012833
5.3445e-10,0.00013084
5.37472e-10,0.00013341
5.40511e-10,0.00013603
5.43567e-10,0.0001387
5.4664e-10,0.00014143
5.49731e-10,0.00011667
5.52839e-10,0.00011898
5.55965e-10,0.00012134
5.59108e-10,0.00012375
5.62269e-10,0.0001262
5.65448e-10,0.0001287
5.68645e-10,0.00013125
5.71861e-10,0.00013386
5.75094e-10,0.00013651
5.78346e-10,0.00013922
5.81615e-10,0.00014198
5.84904e-10,0.0001448
5.88211e-10,0.00014767
5.91537e-10,0.0001506
5.94881e-10,0.00015359
5.98245e-10,0.00015664
6.01627e-10,0.00015975
6.05029e-10,0.00016292
6.0845e-10,0.00016615
6.1189e-10,0.00016945
6.1535e-10,0.00016935
6.18829e-10,0.00017272
6.22328e-10,0.00017614
6.25846e-10,0.00017964
6.29385e-10,0.00018321
6.32943e-10,0.00018684
6.36522e-10,0.00019055
6.40121e-10,0.00019434
6.4374e-10,0.0001982
6.4738e-10,0.00020213
6.5104e-10,0.00020615
6.54721e-10,0.00021024
6.58423e-10,0.00021442
6.62146e-10,0.00021868
6.6589e-10,0.00022302
6.69655e-10,0.00022745
6.73441e-10,0.00023197
6.77248e-10,0.00023658
6.81078e-10,0.00024128
6.84928e-10,0.00024607
6.87288e-10,0.000249957
6.9107e-10,0.000255714
6.95077e-10,0.000261762
6.98874e-10,0.000267194
7.02846e-10,0.000272319
7.05825e-10,0.000275665
7.12006e-10,0.000280919
7.14898e-10,0.000282513
7.19337e-10,0.00028384
7.23364e-10,0.000283891
7.27497e-10,0.000282881
7.28169e-10,0.000282622
7.28401e-10,0.000282527
7.28925e-10,0.000282302
7.29356e-10,0.000282105
7.29628e-10,0.000281976
7.30301e-10,0.00028164
7.30543e-10,0.000281514
7.31077e-10,0.000281225
7.31431e-10,0.000281026
7.31955e-10,0.00028072
7.32377e-10,0.000280465
7.32705e-10,0.00028026
7.33224e-10,0.000279927
7.33604e-10,0.000279675
7.34036e-10,0.000279382
7.34616e-10,0.000278975
7.34806e-10,0.000278839
7.3551e-10,0.00027902
7.35797e-10,0.00027846
7.36208e-10,0.00027772
7.36727e-10,0.00027781
7.37076e-10,0.00027754
7.37544e-10,0.00027748
7.38063e-10,0.00027649
7.38402e-10,0.00027593
7.38956e-10,0.00027569
7.39239e-10,0.00027578
7.39845e-10,0.00027476
7.40153e-10,0.0002748
7.40662e-10,0.00027404
7.41139e-10,0.00027324
7.41427e-10,0.00027241
7.42064e-10,0.00027233
7.42357e-10,0.00027215
7.42927e-10,0.00027172
7.43307e-10,0.00027232
7.43723e-10,0.00027209
7.44232e-10,0.0002689
7.44545e-10,0.00026883
7.45207e-10,0.00026856
7.45218e-10,0.00026853
7.46337e-10,0.00026839
7.46358e-10,0.00026825
7.46969e-10,0.00026713
7.47395e-10,0.00026712
7.47724e-10,0.00026696
7.4831e-10,0.00026653
7.48644e-10,0.0002663
7.49178e-10,0.00026501
7.49625e-10,0.00026514
7.5003e-10,0.00026527
7.50554e-10,0.00026428
7.50909e-10,0.00026408
7.51438e-10,0.00026256
7.51884e-10,0.00026163
7.52321e-10,0.00026279
7.52835e-10,0.00026132
7.53184e-10,0.00026068
7.53764e-10,0.00026194
7.54088e-10,0.00026132
7.54694e-10,0.00025972
7.55038e-10,0.00025967
7.5551e-10,0.00025953
7.5608e-10,0.00025841
7.56425e-10,0.0002579
7.56959e-10,0.00025654
7.57364e-10,0.00025637
7.57883e-10,0.00025549
7.58274e-10,0.0002547
7.58756e-10,0.00025416
7.59085e-10,0.00025402
7.59907e-10,0.00025261
7.60194e-10,0.00025081
7.6059e-10,0.00024991
7.61175e-10,0.00025049
7.61499e-10,0.00024985
7.621e-10,0.00024939
7.62464e-10,0.0002487
7.63009e-10,0.00024742
7.63409e-10,0.00024661
7.63959e-10,0.00024676
7.64442e-10,0.00024643
7.64801e-10,0.00024655
7.65366e-10,0.00024395
7.65761e-10,0.00024364
7.66352e-10,0.00024457
7.66691e-10,0.00024385
7.67281e-10,0.00024294
7.67687e-10,0.00024205
7.68185e-10,0.0002413
7.68694e-10,0.00023894
7.69105e-10,0.00023889
7.69659e-10,0.00023782
7.70003e-10,0.00023732
7.70614e-10,0.00023574
7.71e-10,0.00023522
7.7158e-10,0.00023452
7.7197e-10,0.00023476
7.72479e-10,0.00023443
7.73033e-10,0.0002372
7.73382e-10,0.00023633
7.74024e-10,0.00023709
7.74353e-10,0.00023522
7.74949e-10,0.0002345
7.75282e-10,0.00023543
7.75955e-10,0.00023345
7.76227e-10,0.0002339
7.76977e-10,0.00023081
7.7727e-10,0.0002306
7.77891e-10,0.0002284
7.78333e-10,0.00022573
7.78708e-10,0.00022455
7.7938e-10,0.00022135
7.79719e-10,0.00022236
7.80325e-10,0.00022061
7.8069e-10,0.00021859
7.81306e-10,0.00021779
7.81665e-10,0.00021671
7.82307e-10,0.00021323
7.82682e-10,0.00021189
7.83268e-10,0.00020907
7.83653e-10,0.00020818
7.84284e-10,0.00020432
7.84675e-10,0.00020184
7.85229e-10,0.0002003
7.85717e-10,0.00019785
7.86189e-10,0.00019459
7.86682e-10,0.00019228
7.87237e-10,0.00019155
7.87745e-10,0.00018907
7.88151e-10,0.00018589
7.88757e-10,0.00018405
7.89152e-10,0.0001826
7.89758e-10,0.00017919
7.90164e-10,0.0001771
7.90754e-10,0.00017578
7.91165e-10,0.00017486
7.91791e-10,0.00017266
7.92197e-10,0.00017079
7.92741e-10,0.00016874
7.93255e-10,0.0001678
7.93763e-10,0.00016516
7.94266e-10,0.00016168
7.94775e-10,0.00016
7.95288e-10,0.00015774
7.95791e-10,0.00015637
7.96336e-10,0.00015525
7.96757e-10,0.00015502
7.97296e-10,0.00015365
7.97866e-10,0.00015004
8.03008e-10,0.00013808
8.08245e-10,0.00012762
8.13558e-10,0.00011981
8.18954e-10,0.00011483
8.24381e-10,0.00011116
8.29904e-10,0.00010941
8.35412e-10,0.00010897
8.41182e-10,0.00011057
8.46864e-10,0.00011169
8.52751e-10,0.00011218
8.58582e-10,0.00011363
8.64679e-10,0.00011339
8.70694e-10,0.00011387
8.76822e-10,0.00011324
8.83066e-10,0.00011471
8.89388e-10,0.00011562
8.95859e-10,0.00011954
9.02381e-10,0.00012219
9.08933e-10,0.00012455
9.15695e-10,0.00012818
9.22524e-10,0.00013195
9.29383e-10,0.00013459
9.36422e-10,0.00013848
9.43619e-10,0.0001416
9.50785e-10,0.0001456
9.5815e-10,0.00014856
9.65588e-10,0.00015211
9.73117e-10,0.00015641
9.80933e-10,0.00016011
9.88753e-10,0.0001636
9.96604e-10,0.00016774
1.004701e-09,0.00017233
1.013033e-09,0.00017651
1.021211e-09,0.00018097
1.029748e-09,0.00018518
1.038398e-09,0.00019017
1.047134e-09,0.00019504
1.056104e-09,0.00020014
1.065141e-09,0.00020539
1.074454e-09,0.00021091
1.083772e-09,0.00021655
1.093335e-09,0.00022246
1.103025e-09,0.00022858
1.113007e-09,0.00023501
1.123024e-09,0.00024159
1.133348e-09,0.00024852
1.143763e-09,0.00025564
1.154383e-09,0.00026306
1.165284e-09,0.00027082
1.176317e-09,0.00027884
1.187621e-09,0.00028722
1.199098e-09,0.0002959
1.210722e-09,0.00030486
1.222725e-09,0.0003143
1.234901e-09,0.00032405
1.24242e-09,0.0003304
1.248554e-09,0.00033532
1.25499e-09,0.00034069
1.261271e-09,0.00034591
1.26784e-09,0.00035134
1.274259e-09,0.00035704
1.280854e-09,0.00036226
1.287512e-09,0.00036815
1.294122e-09,0.00037385
1.301024e-09,0.00037958
1.307942e-09,0.00038565
1.314823e-09,0.00039167
1.321767e-09,0.00039757
1.328944e-09,0.00040405
1.336026e-09,0.00041025
1.34333e-09,0.00041708
1.350645e-09,0.00042398
1.357944e-09,0.00043123
1.365465e-09,0.00043902
1.372986e-09,0.00044688
1.382189e-09,0.00045649
1.389922e-09,0.0004644
1.397796e-09,0.00047238
1.405781e-09,0.00048036
1.413727e-09,0.00048814
1.421846e-09,0.00049614
1.429987e-09,0.00050421
1.438302e-09,0.00051285
1.446767e-09,0.00052142
1.455238e-09,0.00053017
1.463732e-09,0.00053925
1.472504e-09,0.00054834
1.481288e-09,0.00055794
1.490167e-09,0.00056734
1.49918e-09,0.00057724
1.508287e-09,0.00058694
1.517602e-09,0.0005972
1.526894e-09,0.0006079
1.53632e-09,0.00061911
1.539267e-09,0.00062251
1.545908e-09,0.00063071
1.548813e-09,0.00063415
1.55859e-09,0.00064627
1.568421e-09,0.00065793
1.578457e-09,0.00066995
1.588452e-09,0.00068179
1.598781e-09,0.0006945
1.609185e-09,0.00070752
1.619616e-09,0.00071937
1.630361e-09,0.0007321
1.641031e-09,0.00074507
1.652041e-09,0.00075937
1.663133e-09,0.00077433
1.674287e-09,0.00078804
1.68574e-09,0.00080056
1.697275e-09,0.00081534
1.709007e-09,0.00083094
1.720719e-09,0.00084471
1.732929e-09,0.00086334
1.744981e-09,0.00088162
1.757347e-09,0.00090166
1.769924e-09,0.00092211
1.781686e-09,0.00094279
1.794679e-09,0.00096372
1.807768e-09,0.0009855
1.821278e-09,0.00100417
1.834797e-09,0.00102377
1.848248e-09,0.00104316
1.862931e-09,0.00106562
1.876743e-09,0.00108629
1.891245e-09,0.00110809
1.905828e-09,0.00113046
1.920717e-09,0.00115429
1.935923e-09,0.00117771
1.951139e-09,0.0011996
1.966706e-09,0.00122816
1.982659e-09,0.00125511
1.998928e-09,0.00128367
2.015042e-09,0.00131077
2.031795e-09,0.00133823
2.048673e-09,0.00136613
2.069053e-09,0.00139971
2.076063e-09,0.00141152
2.082872e-09,0.00142384
2.090157e-09,0.00143772
2.097263e-09,0.00145186
2.104506e-09,0.00146512
2.111526e-09,0.00147823
2.118981e-09,0.0014926
2.12632e-09,0.00150508
2.133468e-09,0.00151901
2.141177e-09,0.0015346
2.148643e-09,0.00155107
2.155971e-09,0.00156224
2.163744e-09,0.00157744
2.171189e-09,0.00159268
2.179141e-09,0.00160681
2.186692e-09,0.00161964
2.194698e-09,0.00163393
2.202344e-09,0.00164821
2.210318e-09,0.00166469
2.21842e-09,0.00168286
2.226257e-09,0.00169997
2.234602e-09,0.00171671
2.242566e-09,0.00173236
2.25071e-09,0.00174699
2.259065e-09,0.00176208
2.267506e-09,0.00177903
2.27583e-09,0.00179811
2.28425e-09,0.0018161
2.292669e-09,0.00184138
2.301385e-09,0.0018784
2.310006e-09,0.00187775
2.318691e-09,0.00184805
2.327587e-09,0.00191879
2.336314e-09,0.00193594
2.345369e-09,0.00186821
2.354308e-09,0.00194307
2.3633e-09,0.00196037
2.372419e-09,0.00196423
2.381474e-09,0.00198641
2.3909e-09,0.0020255
2.400295e-09,0.00201747
2.409605e-09,0.0020265
2.414599e-09,0.00203872
2.414652e-09,0.00203897
2.416072e-09,0.00204099
2.416167e-09,0.0020411
2.416739e-09,0.00204251
2.417417e-09,0.0020466
2.418264e-09,0.00204593
2.418275e-09,0.00204597
2.419419e-09,0.00204992
2.419715e-09,0.00204921
2.420573e-09,0.0020511
2.420605e-09,0.00205153
2.42177e-09,0.0020561
2.421939e-09,0.00205451
2.423083e-09,0.0020559
2.423115e-09,0.00205681
