wavelength,k
8.82651e-10,0.000204985
8.85802e-10,0.000206934
8.88949e-10,0.000208836
8.92148e-10,0.000210069
8.95385e-10,0.000211636
8.98614e-10,0.000213494
9.01856e-10,0.0002148
9.05184e-10,0.000216352
9.08479e-10,0.000218102
9.11792e-10,0.000221576
9.15168e-10,0.000223633
9.18567e-10,0.000225526
9.21948e-10,0.000227612
9.25406e-10,0.000229743
9.28833e-10,0.000231522
9.32362e-10,0.000233364
9.35846e-10,0.000235128
9.39404e-10,0.000237666
9.42985e-10,0.000239917
9.46546e-10,0.000242497
9.50204e-10,0.000244427
9.53851e-10,0.000247082
9.57498e-10,0.000249862
9.61232e-10,0.000252691
9.64999e-10,0.000255754
9.68742e-10,0.000258653
9.72491e-10,0.000261602
9.76329e-10,0.000264966
9.80204e-10,0.000268004
9.84109e-10,0.000270344
9.88004e-10,0.000273234
9.91977e-10,0.000276484
9.95959e-10,0.000280152
9.9995e-10,0.000283912
1.003999e-09,0.000286933
1.008075e-09,0.000288174
1.012166e-09,0.000290981
1.01632e-09,0.000294716
1.020558e-09,0.000300117
1.024755e-09,0.000303084
1.028966e-09,0.000304191
1.033271e-09,0.000305443
1.035437e-09,0.000298486
1.035848e-09,0.000300384
1.036239e-09,0.000302984
1.036701e-09,0.000297164
1.037116e-09,0.00030212
1.037584e-09,0.00030477
1.03798e-09,0.0003004
1.038418e-09,0.000301518
1.038847e-09,0.000300134
1.039233e-09,0.000301804
1.039721e-09,0.000302688
1.040111e-09,0.000304366
1.040602e-09,0.000303261
1.040983e-09,0.000303981
1.04145e-09,0.000305543
1.041842e-09,0.000312272
1.042242e-09,0.000308341
1.042738e-09,0.00030888
1.043124e-09,0.000308625
1.04362e-09,0.000311608
1.044002e-09,0.00031215
1.044463e-09,0.000313773
1.04486e-09,0.000317135
1.045308e-09,0.000314107
1.045743e-09,0.000315481
1.046148e-09,0.000318598
1.046634e-09,0.000318071
1.04702e-09,0.000319916
1.047497e-09,0.000319414
1.047893e-09,0.000318403
1.048374e-09,0.000319914
1.048785e-09,0.000318606
1.049194e-09,0.000317589
1.049695e-09,0.00031858
1.050071e-09,0.00032093
1.050563e-09,0.000319996
1.050987e-09,0.000319229
1.051465e-09,0.000317116
1.051873e-09,0.00031838
1.052331e-09,0.000317473
1.052757e-09,0.00031358
1.053152e-09,0.000313658
1.053643e-09,0.000313786
1.054048e-09,0.000312946
1.054544e-09,0.000310628
1.054945e-09,0.000308138
1.055455e-09,0.000305304
1.055856e-09,0.000302492
1.056308e-09,0.000306277
1.056748e-09,0.000301993
1.057162e-09,0.00030252
1.057644e-09,0.000302343
1.058039e-09,0.00030325
1.05853e-09,0.00030144
1.05895e-09,0.000303693
1.059442e-09,0.000303886
1.059847e-09,0.000305911
1.060333e-09,0.000305249
1.060743e-09,0.000306058
1.06121e-09,0.000308651
1.061655e-09,0.000310014
1.062069e-09,0.000310923
1.062574e-09,0.000314579
1.062965e-09,0.000320969
1.06347e-09,0.000326223
1.06388e-09,0.00033259
1.064382e-09,0.000342061
1.064801e-09,0.000354108
1.065272e-09,0.000370226
1.065703e-09,0.000388031
1.066155e-09,0.00041223
1.066618e-09,0.000430327
1.067066e-09,0.000457853
1.067538e-09,0.000499241
1.067939e-09,0.000557013
1.068448e-09,0.000632714
1.068878e-09,0.000736485
1.069364e-09,0.000848325
1.069784e-09,0.000928352
1.070261e-09,0.000996859
1.070699e-09,0.001030143
1.071148e-09,0.000969065
1.071624e-09,0.000823974
1.072043e-09,0.000648851
1.072534e-09,0.000494556
1.072955e-09,0.000369497
1.073474e-09,0.000282764
1.073908e-09,0.000239873
1.07441e-09,0.000216817
1.074815e-09,0.000208259
1.075325e-09,0.000202494
1.07573e-09,0.00020045
1.076188e-09,0.00019894
1.076664e-09,0.000198713
1.077099e-09,0.000198448
1.077603e-09,0.000199464
1.078004e-09,0.000198825
1.078538e-09,0.000199049
1.078954e-09,0.000199846
1.079477e-09,0.000199144
1.079869e-09,0.0001997
1.080393e-09,0.000199238
1.080798e-09,0.000198179
1.081337e-09,0.000196667
1.081748e-09,0.000196294
1.082244e-09,0.000196652
1.082682e-09,0.000194421
1.083202e-09,0.000194116
1.083626e-09,0.000195536
1.084122e-09,0.000194776
1.084561e-09,0.000195544
1.08501e-09,0.000196079
1.08551e-09,0.000197444
1.085949e-09,0.000200738
1.086464e-09,0.000200434
1.086859e-09,0.000206494
1.087394e-09,0.000207743
1.087823e-09,0.000213111
1.088352e-09,0.00022127
1.088776e-09,0.000231992
1.089309e-09,0.000248307
1.08973e-09,0.000268328
1.090255e-09,0.000289732
1.090683e-09,0.000309779
1.091184e-09,0.000337295
1.091637e-09,0.00037679
1.092172e-09,0.000430823
1.092596e-09,0.000476111
1.09311e-09,0.000510172
1.093545e-09,0.000520206
1.094064e-09,0.000504971
1.094508e-09,0.000493487
1.094955e-09,0.000533036
1.095466e-09,0.000627355
1.095939e-09,0.000806815
1.096429e-09,0.001071143
1.096845e-09,0.001317284
1.097393e-09,0.001331629
1.097797e-09,0.001148104
1.098365e-09,0.000919625
1.098766e-09,0.000674534
1.099309e-09,0.000491467
1.099743e-09,0.000349493
1.100278e-09,0.000248988
1.100707e-09,0.000185285
1.101245e-09,0.000149681
1.101694e-09,0.00012806
1.102219e-09,0.000115064
1.102638e-09,0.0001106
1.103197e-09,0.000102476
1.103635e-09,9.69772e-05
1.104163e-09,9.04653e-05
1.104627e-09,8.89678e-05
1.105136e-09,8.53285e-05
1.10559e-09,8.41252e-05
1.106134e-09,8.25646e-05
1.106567e-09,8.24979e-05
1.107092e-09,8.00342e-05
1.10754e-09,7.83143e-05
1.108074e-09,7.78005e-05
1.108508e-09,7.7703e-05
1.109061e-09,7.59499e-05
1.109499e-09,7.70958e-05
1.110019e-09,7.65961e-05
1.110486e-09,7.51496e-05
1.110996e-09,7.54306e-05
1.111463e-09,7.62598e-05
1.111969e-09,7.44044e-05
1.112447e-09,7.50541e-05
1.11297e-09,7.38902e-05
1.113443e-09,7.43261e-05
1.113972e-09,7.49581e-05
1.114421e-09,7.50747e-05
1.11495e-09,7.45829e-05
1.115417e-09,7.39215e-05
1.115965e-09,7.37142e-05
1.116418e-09,7.42281e-05
1.116962e-09,7.26034e-05
1.117405e-09,7.40116e-05
1.11793e-09,7.44215e-05
1.118393e-09,7.42243e-05
1.118917e-09,7.33525e-05
1.119389e-09,7.35844e-05
1.119938e-09,7.47482e-05
1.12039e-09,7.45405e-05
1.120934e-09,7.32928e-05
1.121402e-09,7.41297e-05
1.121955e-09,7.30561e-05
1.122403e-09,7.44625e-05
1.122932e-09,7.39536e-05
1.123404e-09,7.34708e-05
1.123948e-09,7.3778e-05
1.124424e-09,7.52206e-05
1.124964e-09,7.39556e-05
1.125436e-09,7.33814e-05
1.125984e-09,7.47317e-05
1.126438e-09,7.35495e-05
1.127019e-09,7.34666e-05
1.127452e-09,7.24305e-05
1.128016e-09,7.2802e-05
1.128468e-09,7.35207e-05
1.129002e-09,7.22581e-05
1.129484e-09,7.46087e-05
1.130037e-09,7.33061e-05
1.130485e-09,7.36927e-05
1.131067e-09,7.37348e-05
1.131516e-09,7.31347e-05
1.132064e-09,7.47186e-05
1.132546e-09,7.42039e-05
1.133075e-09,7.49465e-05
1.133547e-09,7.52471e-05
1.13409e-09,7.54122e-05
1.134577e-09,7.53889e-05
1.135106e-09,7.55306e-05
1.135608e-09,7.65289e-05
1.136127e-09,7.60299e-05
1.136671e-09,7.57564e-05
1.137152e-09,7.61741e-05
1.137696e-09,7.62087e-05
1.138191e-09,7.56531e-05
1.138725e-09,7.65132e-05
1.139207e-09,7.57307e-05
1.139804e-09,7.6386e-05
1.140247e-09,7.82597e-05
1.140819e-09,7.75679e-05
1.141281e-09,7.69407e-05
1.141854e-09,7.76392e-05
1.142311e-09,7.80446e-05
1.142894e-09,7.77954e-05
1.143336e-09,7.83894e-05
1.143919e-09,7.83447e-05
1.14437e-09,7.82865e-05
1.144973e-09,7.77857e-05
1.145445e-09,7.88454e-05
1.145997e-09,7.90658e-05
1.146522e-09,7.94871e-05
1.147037e-09,7.89388e-05
1.147576e-09,7.98265e-05
1.148081e-09,7.82438e-05
1.148663e-09,7.97044e-05
1.14914e-09,7.94842e-05
1.149703e-09,7.89989e-05
1.150199e-09,8.05416e-05
1.150766e-09,7.9718e-05
1.151253e-09,7.83508e-05
1.151853e-09,7.87108e-05
1.152311e-09,7.88543e-05
1.152898e-09,7.80651e-05
1.153356e-09,7.87396e-05
1.153962e-09,7.74186e-05
1.154405e-09,7.84154e-05
1.155011e-09,7.82667e-05
1.155487e-09,7.80992e-05
1.15606e-09,7.73222e-05
1.15657e-09,7.77886e-05
1.157099e-09,7.80602e-05
1.157676e-09,7.76186e-05
1.158162e-09,7.8018e-05
1.158745e-09,7.84159e-05
1.15923e-09,7.72734e-05
1.159832e-09,7.87122e-05
1.160293e-09,7.85008e-05
1.160908e-09,7.88996e-05
1.161362e-09,7.94824e-05
1.161962e-09,8.01003e-05
1.16252e-09,7.91545e-05
1.163022e-09,7.91167e-05
1.163598e-09,8.01912e-05
1.164094e-09,8.00962e-05
1.164695e-09,8.1932e-05
1.165173e-09,8.14791e-05
1.165773e-09,8.0685e-05
1.166274e-09,8.15447e-05
1.166842e-09,8.12875e-05
1.167362e-09,8.15757e-05
1.167915e-09,8.19487e-05
1.168496e-09,8.19073e-05
1.168977e-09,8.24571e-05
1.169612e-09,8.24592e-05
1.17006e-09,8.23702e-05
1.170662e-09,8.23095e-05
1.171157e-09,8.3131e-05
1.171758e-09,8.29176e-05
1.172278e-09,8.34396e-05
1.172812e-09,8.33819e-05
1.173407e-09,8.34834e-05
1.173908e-09,8.40563e-05
1.174514e-09,8.41353e-05
1.175005e-09,8.54427e-05
1.175616e-09,8.35788e-05
1.176092e-09,8.51978e-05
1.176702e-09,8.49743e-05
1.177255e-09,8.45615e-05
1.177799e-09,8.39109e-05
1.17841e-09,8.47503e-05
1.178907e-09,8.60921e-05
1.179498e-09,8.49997e-05
1.179997e-09,8.58162e-05
1.180613e-09,8.58517e-05
1.18111e-09,8.65084e-05
1.181695e-09,8.57976e-05
1.182286e-09,8.48857e-05
1.182826e-09,8.57707e-05
1.183427e-09,8.64551e-05
1.183936e-09,8.66383e-05
1.184534e-09,8.7144e-05
1.185009e-09,8.65107e-05
1.185644e-09,8.67411e-05
1.186197e-09,8.6414e-05
1.18675e-09,8.77252e-05
1.187346e-09,8.68431e-05
1.187857e-09,8.64632e-05
1.188471e-09,8.73108e-05
1.188963e-09,8.75406e-05
1.189573e-09,8.66201e-05
1.190116e-09,8.70205e-05
1.190694e-09,8.74801e-05
1.191338e-09,8.75615e-05
1.191829e-09,8.85122e-05
1.192458e-09,8.92671e-05
1.19294e-09,8.87028e-05
1.193579e-09,8.84056e-05
1.194085e-09,8.90146e-05
1.194637e-09,8.92813e-05
1.195271e-09,8.88029e-05
1.195787e-09,8.92227e-05
1.196406e-09,9.03861e-05
1.196912e-09,8.95194e-05
1.197567e-09,8.97316e-05
1.19808e-09,8.94371e-05
1.198682e-09,9.0192e-05
1.199262e-09,9.02757e-05
1.199797e-09,9.11366e-05
1.200441e-09,9.0412e-05
1.200922e-09,9.09602e-05
1.201561e-09,9.14231e-05
1.202153e-09,9.04273e-05
1.202683e-09,9.08918e-05
1.203341e-09,9.11965e-05
1.203827e-09,9.17206e-05
1.20449e-09,9.1488e-05
1.205005e-09,9.1485e-05
1.205619e-09,9.13795e-05
1.206236e-09,9.29134e-05
1.206741e-09,9.16111e-05
1.207374e-09,9.22014e-05
1.2079e-09,9.21002e-05
1.208535e-09,9.30728e-05
1.209158e-09,9.34185e-05
1.209673e-09,9.25755e-05
1.210298e-09,9.38331e-05
1.210803e-09,9.29947e-05
1.211462e-09,9.39704e-05
1.212097e-09,9.4267e-05
1.212611e-09,9.36118e-05
1.213264e-09,9.38636e-05
1.213794e-09,9.41129e-05
1.214443e-09,9.40604e-05
1.215005e-09,9.45042e-05
1.215577e-09,9.43794e-05
1.216188e-09,9.29618e-05
1.216736e-09,9.47382e-05
1.217375e-09,9.5664e-05
1.217889e-09,9.55678e-05
1.218533e-09,9.54387e-05
1.219196e-09,9.65026e-05
1.219721e-09,9.52938e-05
1.220347e-09,9.60859e-05
1.22089e-09,9.50989e-05
1.221509e-09,9.68394e-05
1.222144e-09,9.60258e-05
1.222702e-09,9.6433e-05
1.22334e-09,9.62447e-05
1.223851e-09,9.65668e-05
1.22451e-09,9.76484e-05
1.225129e-09,9.72996e-05
1.225697e-09,9.65248e-05
1.226335e-09,9.71937e-05
1.226865e-09,9.6834e-05
1.227514e-09,9.69679e-05
1.228019e-09,9.86505e-05
1.228654e-09,9.83085e-05
1.229354e-09,9.80369e-05
1.22987e-09,9.79802e-05
1.230556e-09,9.81453e-05
1.2312e-09,9.9075e-05
1.231735e-09,9.82966e-05
1.232387e-09,9.95773e-05
1.232984e-09,9.87835e-05
1.233518e-09,9.991e-05
1.234247e-09,9.94619e-05
1.234753e-09,0.000100034
1.235424e-09,9.97469e-05
1.23606e-09,9.98962e-05
1.23656e-09,9.97015e-05
1.237166e-09,0.000100458
1.237843e-09,0.00010023
1.238407e-09,0.000100437
1.239126e-09,0.000100568
1.239621e-09,0.000101528
1.240247e-09,0.000101609
1.240967e-09,0.000101662
1.241534e-09,0.000102286
1.242211e-09,0.000101773
1.242702e-09,0.000102498
1.243337e-09,0.000102641
1.244076e-09,0.000103072
1.244628e-09,0.00010264
1.245292e-09,0.000102607
1.245912e-09,0.000102774
1.246489e-09,0.000103877
1.247166e-09,0.00010356
1.247696e-09,0.000103695
1.248364e-09,0.000102866
1.24907e-09,0.000103768
1.249603e-09,0.000103022
1.250281e-09,0.00010426
1.250914e-09,0.00010387
1.251487e-09,0.000104834
1.25214e-09,0.000104201
1.252712e-09,0.000104942
1.253385e-09,0.00010538
1.254057e-09,0.000104966
1.254611e-09,0.000105465
1.255288e-09,0.000105549
1.255937e-09,0.00010618
1.25648e-09,0.000106073
1.25719e-09,0.000106151
1.25771e-09,0.000106565
1.258436e-09,0.000106678
1.259098e-09,0.00010728
1.259722e-09,0.000106857
1.260318e-09,0.000107504
1.261034e-09,0.000107502
1.261602e-09,0.000107189
1.262235e-09,0.000108219
1.262794e-09,0.000107394
1.263495e-09,0.000107749
1.264163e-09,0.000108286
1.26484e-09,0.000109009
1.265365e-09,0.000107253
1.266004e-09,0.000108829
1.266766e-09,0.000108
1.267339e-09,0.00010879
1.268021e-09,0.000107887
1.268679e-09,0.000109257
1.26928e-09,0.000109186
1.269861e-09,0.000110443
1.270496e-09,0.000108545
1.271158e-09,0.000109609
1.271922e-09,0.000110506
1.272451e-09,0.000109657
1.273176e-09,0.000109048
1.273743e-09,0.000110875
1.274397e-09,0.000111028
1.275065e-09,0.000110661
1.275698e-09,0.000110002
1.276415e-09,0.000111406
1.277033e-09,0.000111637
1.277668e-09,0.000111379
1.278321e-09,0.000110612
1.278989e-09,0.000111964
1.279629e-09,0.000112697
1.280338e-09,0.000112399
1.281055e-09,0.000111289
1.281602e-09,0.000112924
1.282304e-09,0.000112661
1.282938e-09,0.000113035
1.283577e-09,0.000113048
1.284254e-09,0.000113091
1.284917e-09,0.000113614
1.285571e-09,0.000113696
1.28631e-09,0.00011336
1.286925e-09,0.000114306
1.287569e-09,0.000114547
1.288241e-09,0.000115445
1.288909e-09,0.00011429
1.289557e-09,0.000115143
1.290297e-09,0.00011495
1.290917e-09,0.000115917
1.291585e-09,0.000115391
1.294205e-09,0.000115915
1.296899e-09,0.000115313
1.299649e-09,0.000117367
1.302348e-09,0.000118202
1.305093e-09,0.000118633
1.307857e-09,0.000120033
1.310605e-09,0.00012106
1.313374e-09,0.000121763
1.316183e-09,0.000122591
1.318971e-09,0.000123277
1.321756e-09,0.000125195
1.324593e-09,0.000125887
1.327442e-09,0.000127189
1.330279e-09,0.000128855
1.333118e-09,0.000129247
1.33599e-09,0.000129716
1.338894e-09,0.000131993
1.341792e-09,0.000131882
1.344694e-09,0.000132286
1.347836e-09,0.000134284
1.350801e-09,0.000135107
1.353739e-09,0.000136774
1.356668e-09,0.000137284
1.359659e-09,0.000138546
1.362661e-09,0.000139495
1.365646e-09,0.000140102
1.368632e-09,0.000140893
1.371675e-09,0.000141238
1.374723e-09,0.000142386
1.377776e-09,0.000143628
1.380831e-09,0.000144186
1.383895e-09,0.000145337
1.386974e-09,0.000146511
1.390102e-09,0.000147699
1.393219e-09,0.000149375
1.396366e-09,0.000150758
1.399504e-09,0.000151386
1.402662e-09,0.000152034
1.405841e-09,0.000153434
1.409015e-09,0.000155335
1.41222e-09,0.000155322
1.415426e-09,0.00015519
1.418673e-09,0.000157325
1.421905e-09,0.000157763
1.425183e-09,0.000159402
1.428457e-09,0.000161266
1.431746e-09,0.000161752
1.435072e-09,0.000163206
1.438403e-09,0.000165194
1.441745e-09,0.000166385
1.445107e-09,0.000167874
1.448474e-09,0.000168765
1.451874e-09,0.000169802
1.455272e-09,0.000171327
1.459037e-09,0.000171389
1.462487e-09,0.000172063
1.465913e-09,0.000173448
1.469415e-09,0.000175384
1.472877e-09,0.000176312
1.476391e-09,0.000178582
1.47992e-09,0.00017721
1.483421e-09,0.000178845
1.487006e-09,0.000180654
1.490579e-09,0.000180558
1.494125e-09,0.000183455
1.497757e-09,0.00018444
1.501406e-09,0.000185694
1.50503e-09,0.000187301
1.508659e-09,0.000188749
1.512374e-09,0.000190626
1.516062e-09,0.000191512
1.51975e-09,0.000193224
1.523478e-09,0.000193673
1.527242e-09,0.000196666
1.531008e-09,0.00019809
1.534805e-09,0.000200004
1.538615e-09,0.000202278
1.542431e-09,0.000203298
1.546242e-09,0.000204725
1.550085e-09,0.000206901
1.553986e-09,0.000208198
1.557885e-09,0.000210407
1.561799e-09,0.000211142
1.565776e-09,0.000211883
1.569727e-09,0.000214371
1.573705e-09,0.000216426
1.577709e-09,0.00021844
1.581711e-09,0.000219824
1.585747e-09,0.000221711
1.589801e-09,0.000223076
1.593889e-09,0.000224975
1.597989e-09,0.000226718
1.602102e-09,0.000229024
1.606246e-09,0.000230649
1.61039e-09,0.000231875
1.614586e-09,0.000233725
1.618809e-09,0.000236031
1.623049e-09,0.000238199
1.627311e-09,0.000239739
1.631578e-09,0.000241504
1.63585e-09,0.000243765
1.640188e-09,0.000247021
1.644538e-09,0.000247665
1.648908e-09,0.000250134
1.653264e-09,0.000251644
1.657725e-09,0.000253825
1.662158e-09,0.000255991
1.666567e-09,0.000257003
1.671116e-09,0.00025903
1.675602e-09,0.000261034
1.680126e-09,0.000263528
1.684702e-09,0.000265474
1.689258e-09,0.000267991
1.693891e-09,0.00027072
1.698518e-09,0.000272366
1.703222e-09,0.000274586
1.707882e-09,0.00027629
1.712644e-09,0.000278985
1.717303e-09,0.000281153
1.72211e-09,0.000283097
1.726877e-09,0.00028539
1.731704e-09,0.000287693
1.736569e-09,0.000289277
1.74137e-09,0.00029187
1.746324e-09,0.000293609
1.751292e-09,0.00029717
1.756202e-09,0.000299184
1.761202e-09,0.00030136
1.766202e-09,0.000303568
1.771659e-09,0.0003066
1.776723e-09,0.000311365
1.781826e-09,0.000313088
1.786954e-09,0.000315822
1.792123e-09,0.000317219
1.79731e-09,0.000319678
1.80252e-09,0.00031929
1.807755e-09,0.000323468
1.813057e-09,0.000325566
1.818367e-09,0.00032959
1.823703e-09,0.000331757
1.82908e-09,0.000333528
1.834464e-09,0.000336095
1.839849e-09,0.000338361
1.845384e-09,0.000340938
1.850877e-09,0.000342368
1.856402e-09,0.000344746
1.861927e-09,0.000346959
1.867593e-09,0.0003489
1.873235e-09,0.0003539
1.878876e-09,0.000355849
1.884591e-09,0.000359868
1.890341e-09,0.000361571
1.896081e-09,0.000365141
1.901905e-09,0.00036766
1.90777e-09,0.00036919
1.913617e-09,0.000370956
1.919557e-09,0.00037314
1.925463e-09,0.000373407
1.931511e-09,0.000376908
1.937499e-09,0.000378994
1.943654e-09,0.000386796
1.949677e-09,0.000390785
1.955873e-09,0.000392996
1.962028e-09,0.000397944
1.968289e-09,0.000400908
1.974526e-09,0.000403656
1.980773e-09,0.000406632
1.987199e-09,0.000408153
1.993561e-09,0.000406905
1.999924e-09,0.000407371
2.006417e-09,0.000410071
2.012969e-09,0.000413712
2.01953e-09,0.000422868
2.026132e-09,0.000433531
2.032715e-09,0.000438541
2.039377e-09,0.000445049
2.046109e-09,0.000451832
2.052885e-09,0.00045491
2.05971e-09,0.000458209
2.066552e-09,0.000461077
2.07346e-09,0.000462523
2.080418e-09,0.000466004
2.087408e-09,0.000468546
2.094432e-09,0.000471118
2.101557e-09,0.000474837
2.108779e-09,0.000478647
2.115927e-09,0.000481777
2.123157e-09,0.000490804
2.130429e-09,0.000494675
2.13791e-09,0.00049462
2.145288e-09,0.00049577
2.152661e-09,0.000502477
2.160108e-09,0.000505319
2.167768e-09,0.000508426
2.175908e-09,0.000513639
2.177812e-09,0.000515033
2.179716e-09,0.000517094
2.181622e-09,0.000517459
2.183533e-09,0.000520712
2.185447e-09,0.000521447
2.187351e-09,0.000520403
2.189283e-09,0.000522221
2.191207e-09,0.000526747
2.193128e-09,0.000525507
2.19506e-09,0.00052629
2.197002e-09,0.000527286
2.198941e-09,0.000532201
2.200883e-09,0.000528748
2.202825e-09,0.000532197
2.204774e-09,0.000530892
2.206724e-09,0.000534975
2.208693e-09,0.0005342
2.21067e-09,0.000535124
2.21263e-09,0.000535063
2.21458e-09,0.000535903
2.216557e-09,0.000538605
2.218509e-09,0.000540535
2.220514e-09,0.000541483
2.222481e-09,0.000543035
2.224486e-09,0.000545075
2.226464e-09,0.000544921
2.228443e-09,0.000547342
2.230456e-09,0.000548549
2.232436e-09,0.000549168
2.234459e-09,0.000550738
2.236446e-09,0.000554431
2.23848e-09,0.000556186
2.240513e-09,0.000559949
2.242518e-09,0.000561612
2.24455e-09,0.000563745
2.246573e-09,0.000567037
2.248596e-09,0.000567384
2.25064e-09,0.000569047
2.252683e-09,0.000571997
2.254716e-09,0.000571359
2.256757e-09,0.000573622
2.258789e-09,0.000570986
2.260841e-09,0.000572822
2.262901e-09,0.000571237
2.264952e-09,0.000573425
2.267013e-09,0.000573898
2.269102e-09,0.000576608
2.271153e-09,0.000576555
2.273252e-09,0.000580675
2.27532e-09,0.000580161
2.277409e-09,0.00058263
2.279478e-09,0.00058313
2.281594e-09,0.000584864
2.283694e-09,0.000584912
2.285762e-09,0.000588231
2.287841e-09,0.000590289
2.289957e-09,0.000591524
2.292053e-09,0.000596694
2.29418e-09,0.000597873
2.296313e-09,0.000598869
2.298419e-09,0.000602369
2.300574e-09,0.000602917
2.30267e-09,0.00060704
2.304804e-09,0.000609563
2.306929e-09,0.000609801
2.309074e-09,0.000608632
2.311226e-09,0.00061262
2.313378e-09,0.000615418
2.315522e-09,0.000612856
2.317713e-09,0.000611401
2.319865e-09,0.000610721
2.322007e-09,0.000612389
2.324159e-09,0.00062321
2.326342e-09,0.000638629
2.32853e-09,0.000648479
2.330738e-09,0.000645783
2.3329e-09,0.000630546
2.335097e-09,0.000613449
2.33727e-09,0.000608251
2.339432e-09,0.000604715
2.341676e-09,0.00061049
2.343876e-09,0.000611926
2.346102e-09,0.000614152
2.348327e-09,0.00061562
2.350518e-09,0.000617432
2.352698e-09,0.000617766
2.354923e-09,0.000618209
2.357205e-09,0.000615927
2.359441e-09,0.0006211
2.361694e-09,0.000623805
