wavelength,z_bar
3.9e-07,0.0184726
3.91e-07,0.02221101
3.92e-07,0.02669819
3.93e-07,0.03206937
3.94e-07,0.03847832
3.95e-07,0.04609784
3.96e-07,0.05511953
3.97e-07,0.06575257
3.98e-07,0.07822113
3.99e-07,0.09276013
4e-07,0.109609
4.01e-07,0.1290077
4.02e-07,0.1512047
4.03e-07,0.1764441
4.04e-07,0.2049517
4.05e-07,0.2369246
4.06e-07,0.2725123
4.07e-07,0.311782
4.08e-07,0.3547064
4.09e-07,0.4011473
4.1e-07,0.4508369
4.11e-07,0.5034164
4.12e-07,0.5586361
4.13e-07,0.6162734
4.14e-07,0.6760982
4.15e-07,0.7378822
4.16e-07,0.8013019
4.17e-07,0.8655573
4.18e-07,0.9295791
4.19e-07,0.9921293
4.2e-07,1.051821
4.21e-07,1.107509
4.22e-07,1.159527
4.23e-07,1.208869
4.24e-07,1.256834
4.25e-07,1.305008
4.26e-07,1.354758
4.27e-07,1.405594
4.28e-07,1.456414
4.29e-07,1.50596
4.3e-07,1.552826
4.31e-07,1.595902
4.32e-07,1.635768
4.33e-07,1.673573
4.34e-07,1.710604
4.35e-07,1.74828
4.36e-07,1.787504
4.37e-07,1.826609
4.38e-07,1.863108
4.39e-07,1.894332
4.4e-07,1.917479
4.41e-07,1.930529
4.42e-07,1.934819
4.43e-07,1.93265
4.44e-07,1.926395
4.45e-07,1.918437
4.46e-07,1.91043
4.47e-07,1.901224
4.48e-07,1.889
4.49e-07,1.871996
4.5e-07,1.848545
4.51e-07,1.817792
4.52e-07,1.781627
4.53e-07,1.742514
4.54e-07,1.702749
4.55e-07,1.664439
4.56e-07,1.629207
4.57e-07,1.59736
4.58e-07,1.568896
4.59e-07,1.543823
4.6e-07,1.522157
4.61e-07,1.503611
4.62e-07,1.486673
4.63e-07,1.469595
4.64e-07,1.450709
4.65e-07,1.42844
4.66e-07,1.401587
4.67e-07,1.370094
4.68e-07,1.33422
4.69e-07,1.294275
4.7e-07,1.25061
4.71e-07,1.203696
4.72e-07,1.154316
4.73e-07,1.103284
4.74e-07,1.051347
4.75e-07,0.9991789
4.76e-07,0.9473958
4.77e-07,0.8966222
4.78e-07,0.8473981
4.79e-07,0.8001576
4.8e-07,0.7552379
4.81e-07,0.7127879
4.82e-07,0.6725198
4.83e-07,0.6340976
4.84e-07,0.5972433
4.85e-07,0.5617313
4.86e-07,0.5274921
4.87e-07,0.4948809
4.88e-07,0.4642586
4.89e-07,0.4358841
4.9e-07,0.4099313
4.91e-07,0.3864261
4.92e-07,0.3650566
4.93e-07,0.3454812
4.94e-07,0.3274095
4.95e-07,0.3105939
4.96e-07,0.2948102
4.97e-07,0.2798194
4.98e-07,0.26541
4.99e-07,0.2514084
5e-07,0.2376753
5.01e-07,0.2241211
5.02e-07,0.2107484
5.03e-07,0.1975839
5.04e-07,0.1846574
5.05e-07,0.1720018
5.06e-07,0.1596918
5.07e-07,0.1479415
5.08e-07,0.1369428
5.09e-07,0.1268279
5.1e-07,0.1176796
5.11e-07,0.109497
5.12e-07,0.1020943
5.13e-07,0.09527993
5.14e-07,0.08890075
5.15e-07,0.08283548
5.16e-07,0.07700982
5.17e-07,0.07144001
5.18e-07,0.06615436
5.19e-07,0.06117199
5.2e-07,0.05650407
5.21e-07,0.05215121
5.22e-07,0.04809566
5.23e-07,0.0443172
5.24e-07,0.04079734
5.25e-07,0.03751912
5.26e-07,0.03446846
5.27e-07,0.03163764
5.28e-07,0.02901901
5.29e-07,0.02660364
5.3e-07,0.02438164
5.31e-07,0.02234097
5.32e-07,0.02046415
5.33e-07,0.01873456
5.34e-07,0.01713788
5.35e-07,0.01566174
5.36e-07,0.01429644
5.37e-07,0.01303702
5.38e-07,0.01187897
5.39e-07,0.01081725
5.4e-07,0.00984647
5.41e-07,0.008960687
5.42e-07,0.008152811
5.43e-07,0.007416025
5.44e-07,0.006744115
5.45e-07,0.006131421
5.46e-07,0.005572778
5.47e-07,0.005063463
5.48e-07,0.004599169
5.49e-07,0.004175971
5.5e-07,0.003790291
5.51e-07,0.003438952
5.52e-07,0.003119341
5.53e-07,0.002829038
5.54e-07,0.002565722
5.55e-07,0.002327186
5.56e-07,0.00211128
5.57e-07,0.001915766
5.58e-07,0.001738589
5.59e-07,0.00157792
5.6e-07,0.001432128
5.61e-07,0.001299781
5.62e-07,0.001179667
5.63e-07,0.001070694
5.64e-07,0.0009718623
5.65e-07,0.0008822531
5.66e-07,0.0008010231
5.67e-07,0.0007273884
5.68e-07,0.0006606347
5.69e-07,0.0006001146
5.7e-07,0.0005452416
5.71e-07,0.0004954847
5.72e-07,0.0004503642
5.73e-07,0.0004094455
5.74e-07,0.0003723345
5.75e-07,0.0003386739
5.76e-07,0.0003081396
5.77e-07,0.000280437
5.78e-07,0.0002552996
5.79e-07,0.0002324859
5.8e-07,0.0002117772
5.81e-07,0.0001929758
5.82e-07,0.0001759024
5.83e-07,0.0001603947
5.84e-07,0.0001463059
5.85e-07,0.0001335031
5.86e-07,0.000121866
5.87e-07,0.0001112857
5.88e-07,0.0001016634
5.89e-07,9.291003e-05
5.9e-07,8.494468e-05
5.91e-07,7.769425e-05
5.92e-07,7.109247e-05
5.93e-07,6.507936e-05
5.94e-07,5.960061e-05
5.95e-07,5.460706e-05
5.96e-07,5.005417e-05
5.97e-07,4.590157e-05
5.98e-07,4.211268e-05
5.99e-07,3.865437e-05
6e-07,3.549661e-05
6.01e-07,3.26122e-05
6.02e-07,2.997643e-05
6.03e-07,2.756693e-05
6.04e-07,2.536339e-05
6.05e-07,2.334738e-05
6.06e-07,2.150221e-05
6.07e-07,1.981268e-05
6.08e-07,1.8265e-05
6.09e-07,1.684667e-05
6.1e-07,1.554631e-05
6.11e-07,1.43536e-05
6.12e-07,1.325915e-05
6.13e-07,1.225443e-05
6.14e-07,1.133169e-05
6.15e-07,1.048387e-05
6.16e-07,-5.29395592034e-23
6.17e-07,-4.6322114303e-23
6.18e-07,-9.92616735064e-24
6.19e-07,-9.92616735064e-24
6.2e-07,-4.0325054862e-24
6.21e-07,3.10192729707e-25
6.22e-07,2.58493941423e-26
6.23e-07,-3.23117426779e-27
6.24e-07,-1.29246970711e-26
6.25e-07,-1.21169035042e-27
6.26e-07,-5.04870979341e-29
6.27e-07,-1.64083068286e-28
6.28e-07,-3.47098798297e-29
6.29e-07,7.88860905221e-31
6.3e-07,2.16936748936e-30
6.31e-07,-3.45126646034e-31
6.32e-07,-1.72563323017e-31
6.33e-07,-5.54667823984e-32
6.34e-07,-3.08148791102e-33
6.35e-07,1.54074395551e-33
6.36e-07,3.85185988877e-34
6.37e-07,4.81482486097e-35
6.38e-07,2.40741243048e-35
6.39e-07,-1.80555932286e-35
6.4e-07,-7.52316384526e-37
6.41e-07,1.69271186518e-36
6.42e-07,-1.88079096132e-37
6.43e-07,-1.05794491574e-37
6.44e-07,2.93873587706e-39
6.45e-07,8.81620763117e-39
6.46e-07,1.28569694621e-39
6.47e-07,-9.1835496158e-41
6.48e-07,0.0
6.49e-07,5.73971850987e-41
6.5e-07,1.65016907159e-41
6.51e-07,4.30478888241e-42
6.52e-07,-2.6904930515e-43
6.53e-07,-6.72623262876e-44
6.54e-07,7.84727140022e-44
6.55e-07,2.66246708222e-44
6.56e-07,-1.05097384824e-45
6.57e-07,-7.88230386183e-46
6.58e-07,-1.09476442525e-46
6.59e-07,9.85287982728e-47
6.6e-07,9.57918872097e-48
6.61e-07,6.84227765784e-49
6.62e-07,-1.02634164868e-48
6.63e-07,-8.5528470723e-50
6.64e-07,-8.5528470723e-50
6.65e-07,1.33638235505e-50
6.66e-07,1.20274411954e-50
6.67e-07,-3.34095588762e-52
6.68e-07,-2.92333640166e-52
6.69e-07,1.67047794381e-52
6.7e-07,-7.8303653616e-54
6.71e-07,-9.1354262552e-54
6.72e-07,-4.5677131276e-54
6.73e-07,-3.262652234e-55
6.74e-07,4.893978351e-55
6.75e-07,6.11747293875e-56
6.76e-07,-2.54894705781e-57
6.77e-07,5.73513088008e-57
6.78e-07,1.51343731558e-57
6.79e-07,2.19050137781e-58
6.8e-07,-1.99136488892e-59
6.81e-07,-1.24460305557e-59
6.82e-07,1.86690458336e-60
6.83e-07,7.77876909733e-61
6.84e-07,4.6672614584e-61
6.85e-07,9.72346137166e-62
6.86e-07,-4.86173068583e-62
6.87e-07,7.29259602874e-63
6.88e-07,1.97507809112e-63
6.89e-07,1.06350358753e-63
6.9e-07,1.89911354915e-65
6.91e-07,-5.22256226017e-65
6.92e-07,-2.1365027428e-65
6.93e-07,-1.18694596822e-66
6.94e-07,4.45104738082e-67
6.95e-07,7.41841230137e-68
6.96e-07,3.24555538185e-68
6.97e-07,4.63650768836e-69
6.98e-07,2.89781730522e-69
6.99e-07,-1.08668148946e-69
7e-07,9.05567907883e-71
7.01e-07,6.33897535518e-71
7.02e-07,-1.35835186182e-71
7.03e-07,7.92371919397e-72
7.04e-07,-7.07474928033e-73
7.05e-07,-2.1224247841e-73
7.06e-07,-4.42171830021e-74
7.07e-07,4.86389013023e-74
7.08e-07,2.2108591501e-75
7.09e-07,5.52714787526e-76
7.1e-07,-3.45446742204e-77
7.11e-07,0.0
7.12e-07,-4.31808427755e-78
7.13e-07,9.71568962448e-78
7.14e-07,-2.42892240612e-78
7.15e-07,-1.21446120306e-78
7.16e-07,-8.43375835458e-80
7.17e-07,8.01207043686e-80
7.18e-07,2.31928354751e-80
7.19e-07,0.0
7.2e-07,-7.24776108597e-82
7.21e-07,6.58887371452e-83
7.22e-07,8.23609214315e-83
7.23e-07,2.05902303579e-84
7.24e-07,-7.7213363842e-84
7.25e-07,1.28688939737e-85
7.26e-07,-6.43444698684e-86
7.27e-07,-1.1260282227e-85
7.28e-07,-4.42368230345e-86
7.29e-07,-4.52422053762e-87
7.3e-07,-1.25672792712e-88
7.31e-07,1.06821873805e-87
7.32e-07,9.42545945337e-89
7.33e-07,-3.14181981779e-89
7.34e-07,-1.27636430098e-89
7.35e-07,9.8181869306e-91
7.36e-07,7.97727688111e-91
7.37e-07,1.22727336632e-91
7.38e-07,-1.53409170791e-92
7.39e-07,-1.05468804919e-92
7.4e-07,-6.95135305145e-93
7.41e-07,5.99254573401e-94
7.42e-07,2.996272867e-94
7.43e-07,-7.49068216751e-96
7.44e-07,-2.996272867e-95
7.45e-07,-1.02996879803e-95
7.46e-07,0.0
7.47e-07,5.26688589903e-97
7.48e-07,-9.50965509547e-98
7.49e-07,2.37741377387e-98
7.5e-07,-5.48633947815e-99
7.51e-07,1.82877982605e-99
7.52e-07,-2.85746847821e-100
7.53e-07,1.14298739128e-100
7.54e-07,5.71493695641e-101
7.55e-07,2.05380546871e-101
7.56e-07,0.0
7.57e-07,1.17200855551e-102
7.58e-07,9.76673796262e-104
7.59e-07,6.97624140187e-104
7.6e-07,7.8482715771e-105
7.61e-07,-7.8482715771e-105
7.62e-07,-1.96206789428e-105
7.63e-07,3.81513201665e-106
7.64e-07,1.0219103616e-106
7.65e-07,3.40636787201e-107
7.66e-07,4.25795984001e-109
7.67e-07,1.809632932e-108
7.68e-07,1.33061245e-109
7.69e-07,-6.65306225001e-111
7.7e-07,3.16020456876e-110
7.71e-07,-8.31632781252e-112
7.72e-07,-2.49489834375e-111
7.73e-07,-9.87563927736e-112
7.74e-07,-2.59885244141e-113
7.75e-07,3.24856555176e-113
7.76e-07,-1.21821208191e-113
7.77e-07,-6.09106040956e-115
7.78e-07,-1.21821208191e-114
7.79e-07,7.61382551195e-116
7.8e-07,9.20003916027e-116
7.81e-07,0.0
7.82e-07,-3.56898070873e-117
7.83e-07,3.96553412081e-118
7.84e-07,-9.91383530201e-119
7.85e-07,-6.19614706376e-120
7.86e-07,-2.01374779572e-119
7.87e-07,8.51970221267e-120
7.88e-07,2.42036994678e-120
7.89e-07,3.38851792549e-121
7.9e-07,-6.05092486695e-122
7.91e-07,-3.02546243348e-122
7.92e-07,-1.51273121674e-123
7.93e-07,1.13454841255e-123
7.94e-07,5.20001355754e-124
7.95e-07,1.65454976831e-124
7.96e-07,1.77273189461e-125
7.97e-07,1.18182126308e-125
7.98e-07,0.0
7.99e-07,-3.69319144711e-127
8e-07,4.61648930889e-128
8.01e-07,-5.77061163612e-129
8.02e-07,-1.58691819993e-128
8.03e-07,2.16397936354e-129
8.04e-07,-6.311606477e-130
8.05e-07,-1.57790161925e-130
8.06e-07,-6.76243551107e-131
8.07e-07,-7.04420365737e-132
8.08e-07,1.40884073147e-132
8.09e-07,1.67299836862e-132
8.1e-07,1.54091955005e-133
8.11e-07,5.50328410732e-134
8.12e-07,1.10065682146e-134
8.13e-07,1.10065682146e-134
8.14e-07,3.43955256707e-136
8.15e-07,-5.15932885061e-136
8.16e-07,0.0
8.17e-07,5.37430088605e-137
8.18e-07,1.20921769936e-137
8.19e-07,-8.39734513446e-139
8.2e-07,-5.87814159412e-139
8.21e-07,2.09933628361e-139
8.22e-07,-5.24834070904e-141
8.23e-07,2.49296183679e-140
8.24e-07,-3.28021294315e-141
8.25e-07,-1.80411711873e-141
8.26e-07,-3.48522625209e-142
8.27e-07,1.02506654473e-143
8.28e-07,7.17546581314e-143
8.29e-07,0.0
8.3e-07,0.0
