wavelength,k
3.5e-07,0.000655
3.52e-07,0.000637
3.54e-07,0.000619
3.56e-07,0.000602
3.58e-07,0.000585
3.6e-07,0.000569
3.62e-07,0.000553
3.64e-07,0.000538
3.66e-07,0.000523
3.68e-07,0.000509
3.7e-07,0.000495
3.72e-07,0.000482
3.74e-07,0.000468
3.76e-07,0.000456
3.78e-07,0.000443
3.8e-07,0.000431
3.82e-07,0.000419
3.84e-07,0.000408
3.86e-07,0.000397
3.88e-07,0.000386
3.9e-07,0.000376
3.92e-07,0.000365
3.94e-07,0.000355
3.96e-07,0.000346
3.98e-07,0.000336
4e-07,0.000327
4.02e-07,0.000318
4.04e-07,0.000309
4.06e-07,0.000301
4.08e-07,0.000292
4.1e-07,0.000284
4.12e-07,0.000276
4.14e-07,0.000269
4.16e-07,0.000261
4.18e-07,0.000254
4.2e-07,0.000247
4.22e-07,0.00024
4.24e-07,0.000233
4.26e-07,0.000226
4.28e-07,0.00022
4.3e-07,0.000214
4.32e-07,0.000207
4.34e-07,0.000201
4.36e-07,0.000196
4.38e-07,0.00019
4.4e-07,0.000184
4.42e-07,0.000179
4.44e-07,0.000173
4.46e-07,0.000168
4.48e-07,0.000163
4.5e-07,0.000158
4.52e-07,0.000153
4.54e-07,0.000149
4.56e-07,0.000144
4.58e-07,0.00014
4.6e-07,0.000135
4.62e-07,0.000131
4.64e-07,0.000127
4.66e-07,0.000123
4.68e-07,0.000119
4.7e-07,0.000115
4.72e-07,0.000111
4.74e-07,0.000108
4.76e-07,0.000104
4.78e-07,0.0001
4.8e-07,0.0001
4.82e-07,9.4e-05
4.84e-07,9e-05
4.86e-07,8.7e-05
4.88e-07,8.4e-05
4.9e-07,8.1e-05
4.92e-07,7.8e-05
4.94e-07,7.5e-05
4.96e-07,7.3e-05
4.98e-07,7e-05
5e-07,6.7e-05
5.02e-07,6.5e-05
5.04e-07,6.2e-05
5.06e-07,6e-05
5.08e-07,5.7e-05
5.1e-07,5.5e-05
5.12e-07,5.3e-05
5.14e-07,5.1e-05
5.16e-07,4.8e-05
5.18e-07,4.6e-05
5.2e-07,4.4e-05
5.22e-07,4.2e-05
5.24e-07,4.1e-05
5.26e-07,3.9e-05
5.28e-07,3.7e-05
5.3e-07,3.5e-05
5.32e-07,3.3e-05
5.34e-07,3.2e-05
5.36e-07,3e-05
5.38e-07,2.9e-05
5.4e-07,2.7e-05
5.42e-07,2.6e-05
5.44e-07,2.4e-05
5.46e-07,2.3e-05
5.48e-07,2.2e-05
5.5e-07,2.1e-05
5.52e-07,1.9e-05
5.54e-07,1.8e-05
5.56e-07,1.7e-05
5.58e-07,1.6e-05
5.6e-07,1.5e-05
5.62e-07,1.4e-05
5.64e-07,1.3e-05
5.66e-07,1.2e-05
5.68e-07,1.1e-05
5.7e-07,1e-05
5.72e-07,9e-06
5.74e-07,9e-06
5.76e-07,8e-06
5.78e-07,7e-06
5.8e-07,7e-06
5.82e-07,6e-06
5.84e-07,5e-06
5.86e-07,5e-06
5.88e-07,4e-06
5.9e-07,4e-06
5.92e-07,3e-06
5.94e-07,3e-06
5.96e-07,3e-06
5.98e-07,2e-06
6e-07,2e-06
6.02e-07,1e-06
6.04e-07,1e-06
6.06e-07,1e-06
6.08e-07,1e-06
6.1e-07,1e-06
6.12e-07,7.27918939047e-23
6.14e-07,-6.61744490042e-24
6.16e-07,1.03397576569e-24
6.18e-07,1.08567455398e-24
6.2e-07,4.5236439749e-25
6.22e-07,1.93870456067e-26
6.24e-07,2.10026327406e-26
6.26e-07,-1.41363874216e-27
6.28e-07,-7.06819371078e-28
6.3e-07,-2.01948391737e-28
6.32e-07,2.52435489671e-29
6.34e-07,-2.20881053462e-29
6.36e-07,-1.57772181044e-30
6.38e-07,2.26797510251e-30
6.4e-07,-9.86076131526e-32
6.42e-07,-2.95822839458e-31
6.44e-07,-3.54371109767e-32
6.46e-07,-1.54074395551e-33
6.48e-07,-9.62964972194e-34
6.5e-07,-2.88889491658e-34
6.52e-07,4.81482486097e-35
6.54e-07,-1.50463276905e-35
6.56e-07,-6.01853107621e-36
6.58e-07,4.70197740329e-36
6.6e-07,0.0
6.62e-07,-4.46687853312e-37
6.64e-07,-1.46936793853e-38
6.66e-07,-1.76324152623e-38
6.68e-07,4.04076183095e-39
6.7e-07,8.26519465422e-40
6.72e-07,-1.14794370197e-40
6.74e-07,-6.88766221185e-41
6.76e-07,2.86985925494e-42
6.78e-07,-2.86985925494e-42
6.8e-07,-8.96831017168e-44
6.82e-07,3.81153182296e-43
6.84e-07,1.00893489431e-43
6.86e-07,-4.20389539297e-45
6.88e-07,-5.95551847338e-45
6.9e-07,-3.50324616081e-46
6.92e-07,1.3137173103e-46
6.94e-07,0.0
6.96e-07,6.0212043389e-47
6.98e-07,-2.05268329735e-48
7e-07,-1.8816263559e-48
7.02e-07,9.83577413314e-49
7.04e-07,3.10040706371e-49
7.06e-07,-6.14735883321e-50
7.08e-07,4.67733824266e-51
7.1e-07,-6.68191177523e-52
7.12e-07,-5.84667280333e-52
7.14e-07,-1.25285845786e-52
7.16e-07,1.20065602211e-52
7.18e-07,-5.2202435744e-54
7.2e-07,3.262652234e-55
7.22e-07,-8.156630585e-56
7.24e-07,-3.87439952787e-55
7.26e-07,-2.03915764625e-55
7.28e-07,6.37236764453e-57
7.3e-07,1.01957882312e-56
7.32e-07,-7.96545955566e-58
7.34e-07,9.55855146679e-58
7.36e-07,3.08661557782e-58
7.38e-07,-4.97841222229e-59
7.4e-07,-4.3561106945e-60
7.42e-07,1.40017843752e-60
7.44e-07,-2.72256918406e-61
7.46e-07,-4.47279223096e-61
7.48e-07,-2.43086534291e-63
7.5e-07,7.29259602874e-63
7.52e-07,-1.51929083932e-63
7.54e-07,-1.29139721342e-63
7.56e-07,3.7982270983e-65
7.58e-07,-1.89911354915e-65
7.6e-07,7.12167580932e-66
7.62e-07,-8.90209476165e-67
7.64e-07,-4.45104738082e-67
7.66e-07,-1.29822215274e-67
7.68e-07,-6.95476153254e-68
7.7e-07,-2.08642845976e-68
7.72e-07,2.89781730522e-69
7.74e-07,-1.44890865261e-70
7.76e-07,3.62227163153e-71
7.78e-07,9.05567907883e-72
7.8e-07,6.11258337821e-71
7.82e-07,-1.24515587334e-71
7.84e-07,-2.68840472653e-72
7.86e-07,-5.65979942427e-73
7.88e-07,1.76868732008e-74
7.9e-07,-7.07474928033e-74
7.92e-07,3.31628872516e-75
7.94e-07,6.07986266279e-75
7.96e-07,1.5199656657e-75
7.98e-07,2.76357393763e-76
8e-07,8.20436012734e-77
8.02e-07,-6.47712641632e-78
8.04e-07,-5.39760534693e-79
8.06e-07,1.2819312699e-78
8.08e-07,5.06025501275e-80
8.1e-07,-1.0963885861e-79
8.12e-07,-2.10843958865e-81
8.14e-07,-5.27109897162e-82
8.16e-07,3.95332422871e-82
8.18e-07,1.64721842863e-82
8.2e-07,-4.11804607157e-83
8.22e-07,-3.912143768e-83
8.24e-07,-5.66231334841e-84
8.26e-07,2.31640091526e-84
8.28e-07,1.09385598776e-84
8.3e-07,-1.1260282227e-85
8.32e-07,-8.04305873354e-87
8.34e-07,1.70914998088e-86
8.36e-07,7.5403675627e-88
8.38e-07,0.0
8.4e-07,2.35636486334e-88
8.42e-07,-9.03273197615e-89
8.44e-07,-4.9090934653e-90
8.46e-07,-7.36364019795e-91
8.48e-07,-9.8181869306e-91
8.5e-07,4.29545678214e-91
8.52e-07,1.07386419553e-91
8.54e-07,-2.68466048883e-92
8.56e-07,4.31463292848e-93
8.58e-07,2.87642195232e-93
8.6e-07,-5.99254573401e-95
8.62e-07,-1.34832279015e-94
8.64e-07,2.996272867e-95
8.66e-07,1.87267054188e-96
8.68e-07,-4.68167635469e-97
8.7e-07,4.09646681036e-97
8.72e-07,1.60932624693e-97
8.74e-07,-4.02331561731e-98
8.76e-07,0.0
8.78e-07,-6.85792434769e-100
8.8e-07,-8.00091173898e-100
8.82e-07,-4.57194956513e-100
8.84e-07,7.14367119551e-101
8.86e-07,8.92958899439e-103
8.88e-07,-1.78591779888e-102
8.9e-07,4.4647944972e-103
8.92e-07,1.1161986243e-103
8.94e-07,-2.09287242056e-103
8.96e-07,1.04643621028e-104
8.98e-07,4.79616596379e-105
9e-07,-1.52605280666e-105
9.02e-07,-4.08764144641e-106
9.04e-07,-6.81273574401e-108
9.06e-07,-3.23604947841e-107
9.08e-07,-2.98057188801e-108
9.1e-07,2.12897992e-109
9.12e-07,9.58040964002e-109
9.14e-07,-2.12897992e-109
9.16e-07,-6.98571536251e-110
9.18e-07,-1.24744917188e-110
9.2e-07,2.07908195313e-112
9.22e-07,7.27678683595e-112
9.24e-07,2.72879506348e-112
9.26e-07,-9.42084010012e-113
9.28e-07,-8.93355526735e-114
9.3e-07,4.06070693971e-114
9.32e-07,-1.01517673493e-115
9.34e-07,-2.03035346985e-115
9.36e-07,1.52276510239e-115
9.38e-07,2.69656320215e-116
9.4e-07,7.93106824161e-117
9.42e-07,1.9827670604e-118
9.44e-07,2.9741505906e-118
9.46e-07,-1.11530647148e-118
9.48e-07,3.40788088507e-119
9.5e-07,-7.7451838297e-121
9.52e-07,-7.7451838297e-121
9.54e-07,-3.38851792549e-121
9.56e-07,-1.08916647605e-121
9.58e-07,5.7483786236e-122
9.6e-07,-2.26909682511e-123
9.62e-07,9.45457010461e-124
9.64e-07,-7.56365608369e-124
9.66e-07,-5.90910631538e-125
9.68e-07,-6.20456163115e-125
9.7e-07,1.03409360519e-125
9.72e-07,-1.47727657885e-126
9.74e-07,-8.30968075601e-127
9.76e-07,2.30824465445e-128
9.78e-07,-2.88530581806e-128
9.8e-07,-2.88530581806e-128
9.82e-07,2.88530581806e-129
9.84e-07,-5.40994840886e-130
9.86e-07,1.35248710221e-130
9.88e-07,9.58011697402e-131
9.9e-07,2.53591331665e-131
9.92e-07,7.04420365737e-133
9.94e-07,1.23273564004e-132
9.96e-07,-7.04420365737e-133
9.98e-07,-8.80525457171e-134
1e-06,3.30197046439e-134
1.002e-06,1.58219418085e-134
1.004e-06,1.37582102683e-135
1.006e-06,-2.57966442531e-136
1.008e-06,1.18234619493e-136
1.01e-06,-2.14972035442e-137
1.012e-06,0.0
1.014e-06,-1.00768141614e-138
1.016e-06,1.67946902689e-139
1.018e-06,8.39734513446e-140
1.02e-06,3.67383849633e-140
1.022e-06,3.93625553178e-140
1.024e-06,2.62417035452e-141
1.026e-06,8.20053235787e-142
1.028e-06,2.25514639841e-142
1.03e-06,-8.20053235787e-143
1.032e-06,-4.86906608749e-143
1.034e-06,-3.20333295229e-144
1.036e-06,2.88299965706e-144
1.038e-06,2.80291633326e-145
1.04e-06,1.40145816663e-145
1.042e-06,2.50260386898e-147
1.044e-06,0.0
1.046e-06,6.25650967245e-148
1.048e-06,3.91031854528e-148
1.05e-06,1.36861149085e-148
1.052e-06,-8.79821672688e-149
1.054e-06,-4.8878981816e-150
1.056e-06,-2.13845545445e-150
1.058e-06,7.63734090875e-152
1.06e-06,-4.39147102253e-151
1.062e-06,-9.06934232914e-152
1.064e-06,-2.38666903398e-152
1.066e-06,5.66833895571e-153
1.068e-06,1.49166814624e-153
1.07e-06,3.7291703656e-154
1.072e-06,3.7291703656e-155
1.074e-06,-6.9921944355e-156
1.076e-06,-4.07878008738e-156
1.078e-06,4.37012152219e-157
1.08e-06,1.09253038055e-157
1.082e-06,8.1939778541e-158
1.084e-06,-5.46265190273e-158
1.086e-06,-1.02424723176e-158
1.088e-06,1.56482215964e-159
1.09e-06,-2.13384839951e-160
1.092e-06,-3.20077259926e-160
1.094e-06,1.33365524969e-161
1.096e-06,2.11162081201e-161
1.098e-06,5.00120718634e-162
1.1e-06,-6.94612109214e-164
1.102e-06,4.16767265528e-163
1.104e-06,4.34132568259e-165
1.106e-06,-1.8450634151e-164
1.108e-06,4.34132568259e-165
1.11e-06,-1.35666427581e-166
1.112e-06,0.0
1.114e-06,3.39166068952e-167
1.116e-06,2.11978793095e-168
1.118e-06,7.94920474107e-168
1.12e-06,-3.97460237053e-169
1.122e-06,1.65608432106e-169
1.124e-06,9.10846376581e-170
1.126e-06,-4.34722134277e-170
1.128e-06,-8.79794795561e-171
1.13e-06,-1.03505270066e-171
1.132e-06,2.58763175165e-172
1.134e-06,1.4555428603e-172
1.136e-06,7.68203176271e-173
1.138e-06,2.02158730598e-173
1.14e-06,1.01079365299e-174
1.142e-06,-1.32666666955e-174
1.144e-06,-2.84285714903e-175
1.146e-06,8.68650795537e-176
1.148e-06,4.93551588373e-177
1.15e-06,4.44196429536e-177
1.152e-06,-1.35726686803e-177
1.154e-06,-3.08469742733e-179
1.156e-06,-1.3881138423e-178
1.158e-06,-1.15676153525e-179
1.16e-06,-9.15769548739e-180
1.162e-06,-1.44595191906e-180
1.164e-06,-1.20495993255e-181
1.166e-06,-3.76549978922e-182
1.168e-06,-6.02479966276e-182
1.17e-06,-3.76549978922e-183
1.172e-06,-3.05946857874e-183
1.174e-06,-3.5301560524e-184
1.176e-06,-1.7650780262e-184
1.178e-06,5.14814424308e-185
1.18e-06,-2.11441638555e-185
1.182e-06,-9.19311471978e-186
1.184e-06,-2.18336474595e-186
1.186e-06,1.00549692248e-187
1.188e-06,-5.38659065612e-188
1.19e-06,-1.79553021871e-188
1.192e-06,-8.52876853886e-189
1.194e-06,-4.48882554677e-190
1.196e-06,5.61103193346e-191
1.198e-06,-2.10413697505e-191
1.2e-06,7.01378991683e-192
1.202e-06,1.00823230054e-191
1.204e-06,6.57542804703e-193
1.206e-06,1.0959046745e-193
1.208e-06,-1.0959046745e-193
1.21e-06,-1.02741063235e-194
1.212e-06,-1.45549839583e-194
1.214e-06,-4.70896539826e-195
1.216e-06,-1.0702194087e-196
1.218e-06,1.47155168696e-196
1.22e-06,-8.02664556522e-197
1.222e-06,-3.17721386956e-197
1.224e-06,-2.50832673913e-198
1.226e-06,-1.0451361413e-199
1.228e-06,1.30642017663e-200
1.23e-06,6.53210088315e-201
1.232e-06,-1.14311765455e-200
1.234e-06,6.12384457795e-201
1.236e-06,1.22476891559e-201
1.238e-06,-1.02064076299e-202
1.24e-06,-8.93060667618e-203
1.242e-06,4.46530333809e-203
1.244e-06,-2.39212678826e-204
1.246e-06,-2.29245483875e-204
1.248e-06,-2.74097861155e-205
1.25e-06,9.9671949511e-206
1.252e-06,-8.09834589777e-206
1.254e-06,-3.11474842222e-207
1.256e-06,4.28277908055e-207
1.258e-06,7.78687105554e-208
1.26e-06,-2.67673692534e-208
1.262e-06,4.2584451085e-209
1.264e-06,8.3648028917e-210
1.266e-06,-1.14065493978e-210
1.268e-06,-1.85356427714e-210
1.27e-06,-7.12909337361e-212
1.272e-06,-7.12909337361e-212
1.274e-06,1.03965945032e-212
1.276e-06,-1.48522778617e-213
1.278e-06,-1.02109410299e-213
1.28e-06,-1.39240104953e-214
1.282e-06,-2.90083551986e-215
1.284e-06,-2.90083551986e-215
1.286e-06,-8.70250655958e-216
1.288e-06,-1.35976664993e-216
1.29e-06,1.35976664993e-217
1.292e-06,1.13313887495e-218
1.294e-06,4.24927078104e-218
1.296e-06,0.0
1.298e-06,1.7705294921e-220
1.3e-06,4.42632373025e-221
1.302e-06,2.21316186513e-221
1.304e-06,1.93651663199e-221
1.306e-06,1.31406485742e-221
1.308e-06,2.93935560212e-222
1.31e-06,-8.64516353565e-224
1.312e-06,-8.64516353565e-224
1.314e-06,1.08064544196e-224
1.316e-06,-4.05242040734e-225
1.318e-06,6.07863061101e-225
1.32e-06,-1.18195595214e-225
1.322e-06,2.11063562882e-227
1.324e-06,-1.00255192369e-226
1.326e-06,-1.31914726801e-228
1.328e-06,-9.8936045101e-229
1.33e-06,-8.24467042508e-229
1.332e-06,2.06116760627e-229
1.334e-06,1.03058380314e-230
1.336e-06,-5.15291901568e-231
1.338e-06,-4.50880413872e-231
1.34e-06,1.28822975392e-231
1.342e-06,8.8565795582e-232
1.344e-06,8.051435962e-233
1.346e-06,0.0
1.348e-06,-1.00642949525e-233
1.35e-06,-1.88705530359e-234
1.352e-06,1.57254608633e-235
1.354e-06,1.17940956475e-235
1.356e-06,-2.94852391186e-236
1.358e-06,-1.47426195593e-236
1.36e-06,-3.37851698234e-237
1.362e-06,7.67844768715e-239
1.364e-06,-2.87941788268e-238
1.366e-06,1.05578655698e-238
1.368e-06,2.51949064734e-239
1.37e-06,0.0
1.372e-06,-1.4996968139e-240
1.374e-06,1.12477261042e-241
1.376e-06,-1.21850366129e-241
1.378e-06,9.37310508685e-243
1.38e-06,-3.51491440757e-243
1.382e-06,1.17163813586e-243
1.384e-06,-4.027506092e-244
1.386e-06,-1.92221881664e-244
1.388e-06,-9.15342293637e-245
1.39e-06,-5.72088933523e-246
1.392e-06,-5.72088933523e-247
1.394e-06,1.43022233381e-247
1.396e-06,-7.15111166904e-248
1.398e-06,-5.36333375178e-248
1.4e-06,-2.68166687589e-248
1.402e-06,-6.70416718973e-249
1.404e-06,-4.88845524251e-250
1.406e-06,8.72938436162e-251
1.408e-06,-3.05528452657e-251
1.41e-06,-1.74587687232e-251
1.412e-06,4.36469218081e-252
1.414e-06,1.90955282911e-252
1.416e-06,-1.02297472988e-253
1.418e-06,-3.40991576626e-254
1.42e-06,-4.04927497243e-254
1.422e-06,3.72959536935e-255
1.424e-06,-5.32799338478e-256
1.426e-06,1.66499793274e-256
1.428e-06,-9.98998759646e-257
1.43e-06,4.16249483186e-258
1.432e-06,1.76906030354e-257
1.434e-06,1.56093556195e-258
1.436e-06,1.30077963496e-259
1.438e-06,9.75584726217e-260
1.44e-06,4.06493635924e-261
1.442e-06,-2.03246817962e-260
1.444e-06,1.27029261226e-261
1.446e-06,1.52435113471e-261
1.448e-06,-1.11150603573e-262
1.45e-06,-1.58786576533e-263
1.452e-06,-1.98483220666e-264
1.454e-06,1.09165771366e-263
1.456e-06,0.0
1.458e-06,-1.24052012916e-265
1.46e-06,-1.55065016145e-265
1.462e-06,2.90746905272e-266
1.464e-06,1.16298762109e-266
1.466e-06,2.42289087727e-267
1.468e-06,-1.51430679829e-268
1.47e-06,1.51430679829e-268
1.472e-06,7.19295729189e-269
1.474e-06,1.23037427361e-269
1.476e-06,-9.46441748933e-271
1.478e-06,-5.91526093083e-272
1.48e-06,-3.84491960504e-271
1.482e-06,1.10911142453e-272
1.484e-06,1.20153737658e-272
1.486e-06,-4.15916784199e-273
1.488e-06,-9.8202574047e-274
1.49e-06,-2.88831100138e-274
1.492e-06,1.44415550069e-275
1.494e-06,3.24934987656e-275
1.496e-06,2.25649296983e-276
1.498e-06,2.03084367285e-276
1.5e-06,-8.46184863687e-278
1.502e-06,-2.82061621229e-278
1.504e-06,1.41030810614e-278
1.506e-06,1.58659661941e-278
1.508e-06,2.20360641585e-279
1.51e-06,-1.65270481189e-280
1.512e-06,2.75450801981e-281
1.514e-06,2.41019451734e-281
1.516e-06,-4.30391878096e-282
1.518e-06,-2.58235126857e-282
1.52e-06,2.6899492381e-283
1.522e-06,2.6899492381e-284
1.524e-06,3.36243654762e-285
1.526e-06,-2.52182741072e-285
1.528e-06,-5.46395938989e-285
1.53e-06,7.35532994793e-286
1.532e-06,1.5761421317e-286
1.534e-06,0.0
1.536e-06,1.64181472052e-288
1.538e-06,-1.23136104039e-288
1.54e-06,-2.15488182068e-288
1.542e-06,3.33493615105e-289
1.544e-06,2.56533550081e-290
1.546e-06,3.20666937601e-291
1.548e-06,1.60333468801e-291
1.55e-06,2.00416836001e-291
1.552e-06,5.51146299002e-292
1.554e-06,3.00625254001e-292
1.556e-06,5.63672351253e-293
1.558e-06,-7.82878265629e-294
1.56e-06,-7.82878265629e-295
1.562e-06,7.33948374027e-295
1.564e-06,-8.56273103031e-296
1.566e-06,-2.44649458009e-296
1.568e-06,-1.52905911256e-296
1.57e-06,1.52905911256e-297
1.572e-06,9.55661945347e-298
1.574e-06,9.55661945347e-299
1.576e-06,-1.19457743168e-299
1.578e-06,-8.95933073763e-300
1.58e-06,3.73305447401e-301
1.582e-06,1.95985359886e-300
1.584e-06,2.09984314163e-301
1.586e-06,4.08302833095e-302
1.588e-06,7.29112201956e-303
1.59e-06,-1.45822440391e-303
1.592e-06,7.29112201956e-304
1.594e-06,6.37973176711e-304
1.596e-06,1.025314034e-304
1.598e-06,1.13923781556e-305
1.6e-06,0.0
1.602e-06,3.73812408229e-306
1.604e-06,7.56525111892e-307
1.606e-06,1.55755170096e-307
1.608e-06,-5.84081887858e-308
1.61e-06,-1.39067116157e-308
1.612e-06,-1.04300337118e-309
1.614e-06,-1.39067116157e-309
1.616e-06,-4.3458473799e-310
1.618e-06,-6.51877106985e-311
1.62e-06,2.58034688181e-311
1.622e-06,6.79038653109e-312
1.624e-06,1.27319747458e-312
1.626e-06,-4.66839074012e-313
1.628e-06,-1.75064652755e-313
1.63e-06,-4.77449052967e-314
1.632e-06,1.32624736935e-315
1.634e-06,-8.28904605846e-316
1.636e-06,-5.80233224092e-316
1.638e-06,-3.10839227192e-317
1.64e-06,-1.55419613596e-317
1.642e-06,1.29516344663e-318
1.644e-06,3.23790861659e-319
1.646e-06,-2.42843146244e-319
1.648e-06,-1.31540037549e-319
1.65e-06,1.01184644268e-320
1.652e-06,1.7707312747e-320
1.654e-06,1.58101006669e-321
1.656e-06,-1.10670704668e-321
1.658e-06,-1.97626258336e-323
1.66e-06,0.0
1.662e-06,4.44659081257e-323
1.664e-06,0.0
1.666e-06,0.0
1.668e-06,0.0
1.67e-06,0.0
1.672e-06,0.0
1.674e-06,0.0
1.676e-06,0.0
1.678e-06,0.0
1.68e-06,0.0
1.682e-06,0.0
1.684e-06,0.0
1.686e-06,0.0
1.688e-06,0.0
1.69e-06,0.0
1.692e-06,0.0
1.694e-06,0.0
1.696e-06,0.0
1.698e-06,4.94065645841e-324
1.7e-06,0.0
1.702e-06,0.0
1.704e-06,4.94065645841e-324
1.706e-06,0.0
1.708e-06,0.0
1.71e-06,0.0
1.712e-06,-4.94065645841e-324
1.714e-06,0.0
1.716e-06,4.94065645841e-324
1.718e-06,0.0
1.72e-06,0.0
1.722e-06,0.0
1.724e-06,0.0
1.726e-06,0.0
1.728e-06,0.0
1.73e-06,0.0
1.732e-06,0.0
1.734e-06,0.0
1.736e-06,0.0
1.738e-06,0.0
1.74e-06,0.0
1.742e-06,0.0
1.744e-06,0.0
1.746e-06,0.0
1.748e-06,0.0
1.75e-06,0.0
1.752e-06,0.0
1.754e-06,0.0
1.756e-06,0.0
1.758e-06,0.0
1.76e-06,0.0
1.762e-06,0.0
1.764e-06,0.0
1.766e-06,0.0
1.768e-06,0.0
1.77e-06,0.0
1.772e-06,0.0
1.774e-06,0.0
1.776e-06,0.0
1.778e-06,0.0
1.78e-06,0.0
1.782e-06,0.0
1.784e-06,0.0
1.786e-06,0.0
1.788e-06,0.0
1.79e-06,0.0
1.792e-06,0.0
1.794e-06,0.0
1.796e-06,0.0
1.798e-06,0.0
1.8e-06,0.0
