wavelength,n
2.066e-16,0.122846740621
2.1089508319e-16,0.12766323937
2.15279458439e-16,0.132638075903
2.19754982075e-16,0.137780447014
2.24323549012e-16,0.143101094237
2.28987093564e-16,0.148612342484
2.33747590255e-16,0.154328130258
2.38607054657e-16,0.160264034101
2.43567544248e-16,0.166437289906
2.48631159276e-16,0.172866813664
2.53800043655e-16,0.179573223987
2.59076385867e-16,0.186578868465
2.64462419893e-16,0.193907855581
2.69960426156e-16,0.201586093411
2.75572732488e-16,0.209641335877
2.81301715116e-16,0.218103236684
2.87149799665e-16,0.227003410362
2.93119462189e-16,0.23637549904
2.99213230217e-16,0.246255242528
3.05433683824e-16,0.256680548133
3.11783456723e-16,0.267691555141
3.18265237381e-16,0.279330687127
3.24881770154e-16,0.291642683088
3.31635856454e-16,0.304674595797
3.38530355932e-16,0.318475742693
3.45568187689e-16,0.333097591082
3.52752331512e-16,0.348593555506
3.60085829136e-16,0.36501868105
3.67571785533e-16,0.38242918251
3.75213370223e-16,0.40088180634
3.83013818621e-16,0.420432981139
3.90976433402e-16,0.441137724284
3.99104585903e-16,0.463048278801
4.07401717548e-16,0.486212467254
4.15871341306e-16,0.510671770022
4.2451704318e-16,0.536459164782
4.33342483722e-16,0.563596802793
4.42351399584e-16,0.592093644475
4.51547605104e-16,0.621943229657
4.60934993913e-16,0.653121812831
4.70517540592e-16,0.685587146407
4.80299302349e-16,0.719278240973
4.9028442074e-16,0.754116467921
5.0047712342e-16,0.790008396569
5.10881725935e-16,0.826850779326
5.21502633549e-16,0.864538124501
5.32344343107e-16,0.902973343951
5.43411444943e-16,0.942082056657
5.54708624818e-16,0.981831304254
5.6624066591e-16,1.02225373683
5.78012450835e-16,1.06347881745
5.90028963715e-16,1.1057733467
6.02295292289e-16,1.14959470086
6.14816630068e-16,1.19566164222
6.27598278532e-16,1.24504922419
6.40645649374e-16,1.29931534855
6.53964266795e-16,1.36066421788
6.67559769839e-16,1.43213865299
6.81437914784e-16,1.51779027773
6.95604577575e-16,1.62266619156
7.10065756315e-16,1.75222713279
7.24827573806e-16,1.91052144009
7.39896280135e-16,2.09647891709
7.55278255329e-16,2.29890388833
7.70980012047e-16,2.49334714318
7.87008198346e-16,2.64561743502
8.03369600489e-16,2.72349127944
8.20071145824e-16,2.71103705761
8.37119905712e-16,2.61596564261
8.54523098523e-16,2.46478082946
8.72288092693e-16,2.28972164363
8.90422409845e-16,2.11679793746
9.08933727968e-16,1.96100825745
9.27829884674e-16,1.8278962783
9.47118880514e-16,1.71735276624
9.66808882365e-16,1.62680472747
9.86908226887e-16,1.55306618966
1.00742542406e-15,1.49316794145
1.02836916076e-15,1.44462731533
1.0497483045e-15,1.40546877376
1.07157190709e-15,1.37415565333
1.09384920857e-15,1.34950329164
1.11658964103e-15,1.33059968936
1.13980283269e-15,1.31674085707
1.16349861191e-15,1.3073807396
1.18768701137e-15,1.30209335641
1.21237827235e-15,1.30054448596
1.237582849e-15,1.30247056289
1.26331141285e-15,1.30766293993
1.28957485725e-15,1.31595611267
1.31638430203e-15,1.32721886693
1.34375109819e-15,1.34134758426
1.37168683271e-15,1.35826114602
1.40020333347e-15,1.37789702659
1.42931267422e-15,1.40020827547
1.45902717974e-15,1.42516116713
1.48935943101e-15,1.45273335536
1.52032227059e-15,1.48291241079
1.55192880799e-15,1.51569465093
1.58419242529e-15,1.55108419495
1.61712678277e-15,1.58909219173
1.65074582469e-15,1.62973618228
1.6850637852e-15,1.6730395668
1.72009519439e-15,1.71903115353
1.75585488439e-15,1.76774477148
1.7923579957e-15,1.81921893348
1.82961998359e-15,1.87349653834
1.86765662461e-15,1.93062460372
1.90648402331e-15,1.99065402252
1.94611861905e-15,2.0536393373
1.98657719294e-15,2.11963852802
2.02787687497e-15,2.18871280917
2.07003515123e-15,2.26092643313
2.11306987137e-15,2.33634649686
2.15699925609e-15,2.41504274957
2.2018419049e-15,2.49708739927
2.24761680399e-15,2.58255491623
2.29434333425e-15,2.67152183188
2.34204127949e-15,2.76406653149
2.39073083481e-15,2.86026903944
2.44043261516e-15,2.96021079591
2.49116766405e-15,3.06397442393
2.54295746248e-15,3.17164348604
2.59582393804e-15,3.28330222977
2.64978947414e-15,3.39903532142
2.70487691958e-15,3.51892756799
2.76110959812e-15,3.64306362677
2.81851131845e-15,3.77152770315
2.8771063842e-15,3.90440323655
2.93691960427e-15,4.04177257547
2.99797630331e-15,4.18371664239
3.06030233246e-15,4.33031458995
3.1239240803e-15,4.48164345005
3.188868484e-15,4.63777777801
3.25516304072e-15,4.79878929429
3.32283581931e-15,4.96474652702
3.39191547211e-15,5.13571445874
3.46243124716e-15,5.3117541816
3.53441300053e-15,5.49292256588
3.60789120897e-15,5.67927194695
3.68289698284e-15,5.87084983687
3.75946207926e-15,6.06769866707
3.83761891556e-15,6.26985556939
3.91740058299e-15,6.4773522031
3.99884086078e-15,6.6902146363
4.08197423038e-15,6.90846329018
4.1668358901e-15,7.13211295542
4.25346176999e-15,7.36117288966
4.34188854708e-15,7.59564700545
4.43215366088e-15,7.83553415787
4.52429532923e-15,8.08082854042
4.61835256454e-15,8.33152019749
4.71436519021e-15,8.58759566082
4.81237385758e-15,8.84903871599
4.91242006309e-15,9.11583130396
5.01454616587e-15,9.38795456074
5.11879540566e-15,9.66538999618
5.22521192114e-15,9.94812081105
5.3338407686e-15,10.2361333486
5.44472794102e-15,10.5294186743
5.55792038754e-15,10.8279742751
5.67346603336e-15,11.1318058656
5.79141379999e-15,11.4409292866
5.91181362602e-15,11.755372479
6.0347164882e-15,12.0751775109
6.16017442306e-15,12.4004026381
6.28824054896e-15,12.7311243705
6.41896908852e-15,13.0674395201
6.55241539166e-15,13.4094672024
6.68863595894e-15,13.7573507641
6.82768846557e-15,14.1112596082
6.96963178576e-15,14.4713908912
7.11452601772e-15,14.837971065
7.26243250901e-15,15.2112572405
7.41341388261e-15,15.5915383519
7.56753406337e-15,15.9791361024
7.72485830511e-15,16.3744056768
7.88545321822e-15,16.7777362097
8.04938679789e-15,17.1895510009
8.21672845289e-15,17.610307475
8.38754903495e-15,18.0404968862
8.56192086874e-15,18.4806437697
8.73991778256e-15,18.9313051512
8.92161513952e-15,19.3930695216
9.10708986948e-15,19.8665555936
9.29642050165e-15,20.3524108547
9.48968719778e-15,20.8513099354
9.68697178616e-15,21.3639528126
9.88835779621e-15,21.8910628682
1.00939304939e-14,22.433384824
1.03037769178e-14,22.9916825745
1.0517985916e-14,23.5667369381
1.07366481837e-14,24.159343346
1.09598563014e-14,24.7703094881
1.11877047746e-14,25.4004529335
1.14202900733e-14,26.0505987406
1.16577106731e-14,26.721577072
1.19000670968e-14,27.4142208262
1.21474619572e-14,28.1293632962
1.24e-14,28.8678358661
