wavelength,n
9.3e-07,2.95
9.9e-07,3.7
1.2e-06,3.05
1.35e-06,2.55
1.5e-06,1.99
1.7e-06,1.51
2e-06,1.38
2.5e-06,1.39
3e-06,1.58
3.5e-06,1.95
4e-06,2.13
5e-06,2.75
6e-06,3.73
7e-06,4.89
8e-06,6.05
9e-06,7.9
1e-05,10.1
1.1e-05,12.6
1.2e-05,15.3
