wavelength,n
1.239842e-09,0.99947778
1.252366e-09,0.99947003
1.265145e-09,0.99946013
1.278187e-09,0.99944962
1.291502e-09,0.99943911
1.305097e-09,0.99942781
1.318981e-09,0.99941636
1.333163e-09,0.99940449
1.347654e-09,0.99939219
1.362464e-09,0.99937984
1.377602e-09,0.999367
1.393081e-09,0.99935399
1.408911e-09,0.99934017
1.425106e-09,0.99932604
1.441677e-09,0.99931177
1.458637e-09,0.99929731
1.476002e-09,0.99928261
1.493785e-09,0.99926812
1.512002e-09,0.99925292
1.530669e-09,0.99923652
1.549802e-09,0.9992198
1.56942e-09,0.99920137
1.589541e-09,0.99918335
1.610184e-09,0.99916558
1.631371e-09,0.99914711
1.653122e-09,0.99912952
1.675462e-09,0.99911072
1.698414e-09,0.9990915
1.722003e-09,0.99907366
1.746256e-09,0.99905299
1.771203e-09,0.99903131
1.796872e-09,0.99901203
1.823297e-09,0.99899234
1.85051e-09,0.99897199
1.878548e-09,0.9989523
1.907449e-09,0.99893345
1.937253e-09,0.99891203
1.968003e-09,0.99888797
1.999745e-09,0.99886508
2.032528e-09,0.99884904
2.066403e-09,0.99884185
2.101427e-09,0.99883057
2.137658e-09,0.99880363
2.175161e-09,0.99877636
2.214003e-09,0.99877878
2.254258e-09,0.99879564
2.296003e-09,0.99878343
2.339324e-09,0.99876993
2.384311e-09,0.99876196
2.431062e-09,0.99879903
2.479684e-09,0.99884482
2.53029e-09,0.99878703
2.583004e-09,0.99873864
2.637961e-09,0.99876898
2.695308e-09,0.99876442
2.755204e-09,0.99870106
2.817822e-09,0.99869976
2.887382e-09,0.99869764
2.890748e-09,0.99869467
2.894122e-09,0.99868807
2.897504e-09,0.99867884
2.900893e-09,0.99866829
2.904291e-09,0.99865738
2.907697e-09,0.99864627
2.91111e-09,0.99863413
2.914532e-09,0.99862215
2.917962e-09,0.99861075
2.921399e-09,0.99859916
2.924845e-09,0.99858758
2.928299e-09,0.99857534
2.931761e-09,0.99856034
2.935232e-09,0.99854235
2.93871e-09,0.99852149
2.942197e-09,0.99849724
2.945692e-09,0.99847031
2.949196e-09,0.99844048
2.952707e-09,0.99840846
2.956228e-09,0.99837494
2.959756e-09,0.99833867
2.963293e-09,0.99829837
2.966839e-09,0.99825358
2.970393e-09,0.99820342
2.973955e-09,0.99814752
2.977526e-09,0.99808712
2.981106e-09,0.99802383
2.984694e-09,0.99795843
2.988291e-09,0.99789207
2.991896e-09,0.99782777
2.995511e-09,0.99776875
2.999134e-09,0.99771732
3.002765e-09,0.997674
3.006406e-09,0.99763926
3.010056e-09,0.99761114
3.013714e-09,0.99758866
3.017381e-09,0.99757254
3.021057e-09,0.9975628
3.024742e-09,0.99755621
3.028436e-09,0.99753373
3.03214e-09,0.99746751
3.035852e-09,0.99735538
3.039573e-09,0.99724066
3.043304e-09,0.9972384
3.047043e-09,0.99751296
3.050792e-09,0.99813274
3.05455e-09,0.99894583
3.058317e-09,0.99974127
3.062094e-09,1.0005489
3.06588e-09,1.0014017
3.069675e-09,1.0019413
3.07348e-09,1.0018487
3.077294e-09,1.0013113
3.081118e-09,1.0008194
3.084951e-09,1.0009671
3.088794e-09,1.0018058
3.092646e-09,1.0026717
3.096508e-09,1.0033194
3.10038e-09,1.0039535
3.104261e-09,1.0043389
3.108152e-09,1.0042501
3.112053e-09,1.0038906
3.115963e-09,1.003395
3.119884e-09,1.0028457
3.123814e-09,1.0023996
3.127754e-09,1.0020854
3.131705e-09,1.0018411
3.135665e-09,1.0016403
3.139635e-09,1.0014706
3.143615e-09,1.001324
3.147606e-09,1.0011952
3.151606e-09,1.0010805
3.155617e-09,1.0009776
3.159638e-09,1.0008843
3.163669e-09,1.0007988
3.16771e-09,1.0007206
3.171762e-09,1.0006484
3.175824e-09,1.0005818
3.179897e-09,1.000523
3.18398e-09,1.0004639
3.220369e-09,1.0000472
3.262742e-09,0.99972734
3.306245e-09,0.99948701
3.350924e-09,0.99929185
3.396827e-09,0.99912522
3.444005e-09,0.99897632
3.492512e-09,0.99883985
3.542405e-09,0.99871064
3.593745e-09,0.99858725
3.646594e-09,0.99847105
3.701021e-09,0.99835455
3.757097e-09,0.99823471
3.814898e-09,0.99811892
3.874506e-09,0.99800691
3.936006e-09,0.99789526
3.99949e-09,0.997776
4.065055e-09,0.99763737
4.132806e-09,0.99749999
4.202854e-09,0.9973738
4.275317e-09,0.99729159
4.350322e-09,0.99730173
4.428007e-09,0.99722614
4.508516e-09,0.99704227
4.592007e-09,0.99688116
4.678649e-09,0.99671631
4.768623e-09,0.99654463
4.862125e-09,0.99637665
4.959367e-09,0.99621505
5.060579e-09,0.99604049
5.166008e-09,0.99586231
5.275923e-09,0.99568392
5.390617e-09,0.99549131
5.510408e-09,0.9952835
5.635645e-09,0.99507026
5.766706e-09,0.99483544
5.904009e-09,0.99455658
6.048009e-09,0.99430209
6.199209e-09,0.99404183
6.358163e-09,0.99371882
6.525484e-09,0.99339006
6.701848e-09,0.99306043
6.88801e-09,0.9927201
7.084811e-09,0.99234873
7.293187e-09,0.99192835
7.514193e-09,0.99145648
7.749012e-09,0.99093924
7.99898e-09,0.99039597
8.265612e-09,0.98982628
8.550634e-09,0.98920465
8.856013e-09,0.98853739
9.184014e-09,0.98786404
9.537245e-09,0.98714296
9.918735e-09,0.98624941
1.0332016e-08,0.98511477
1.0781234e-08,0.98379394
1.127129e-08,0.98237769
1.1808018e-08,0.98082008
1.2398419e-08,0.9790431
1.2460722e-08,0.97885842
1.2523655e-08,0.97866883
1.2587227e-08,0.97847616
1.2651448e-08,0.97827824
1.2716327e-08,0.97807463
1.2781875e-08,0.97786628
1.2848102e-08,0.9776521
1.291502e-08,0.97743122
1.2982637e-08,0.97720486
1.3050967e-08,0.97697136
1.312002e-08,0.97673102
1.3189807e-08,0.9764854
1.3260341e-08,0.97623543
1.3331633e-08,0.97597953
1.3403696e-08,0.97571753
1.3476542e-08,0.9754493
1.3550184e-08,0.97517301
1.3624636e-08,0.9748901
1.369991e-08,0.9745996
1.3776021e-08,0.97430314
1.3852982e-08,0.97399986
1.3930808e-08,0.97368552
1.4009513e-08,0.97335968
1.4089112e-08,0.97302452
1.4169621e-08,0.97267961
1.4251056e-08,0.97232519
1.4333432e-08,0.97196277
1.4416766e-08,0.97159265
1.4501075e-08,0.97121403
1.4586375e-08,0.97082485
1.4672685e-08,0.9704248
1.4760022e-08,0.97001383
1.4848406e-08,0.96959128
1.4937854e-08,0.96915779
1.5028386e-08,0.96871049
1.5120023e-08,0.96824867
1.5212784e-08,0.96777074
1.530669e-08,0.96727452
1.5401762e-08,0.96676293
1.5498023e-08,0.96623903
1.5595495e-08,0.96569875
1.5694201e-08,0.96513764
1.5794164e-08,0.96455831
1.5895409e-08,0.96395942
1.599796e-08,0.96333535
1.6101843e-08,0.96268641
1.6207083e-08,0.96201691
1.6313709e-08,0.96132089
1.6421747e-08,0.96059497
1.6531225e-08,0.95986066
1.6642173e-08,0.95907451
1.675462e-08,0.95824621
1.6868597e-08,0.95742286
1.6984135e-08,0.95657013
1.7101267e-08,0.95568518
1.7220026e-08,0.95478445
1.7340446e-08,0.95390313
1.7462562e-08,0.95292701
1.758641e-08,0.95188269
1.7712027e-08,0.95088705
1.7839451e-08,0.94979766
1.7968723e-08,0.94861402
1.8099881e-08,0.94740884
1.8232969e-08,0.94616025
1.8368028e-08,0.94485944
1.8505103e-08,0.94349965
1.8644239e-08,0.94207915
1.8785483e-08,0.94059581
1.8928884e-08,0.93904679
1.907449e-08,0.93743029
1.9222355e-08,0.93574544
1.9372529e-08,0.93399017
1.9525069e-08,0.93216146
1.968003e-08,0.93025506
1.983747e-08,0.92826156
1.999745e-08,0.92617098
2.016003e-08,0.92397682
2.0325277e-08,0.9216732
2.0493254e-08,0.91925707
2.0664031e-08,0.91672151
2.0837679e-08,0.91406298
2.1014269e-08,0.91128059
2.1193878e-08,0.90836609
2.1376584e-08,0.90531509
2.1562467e-08,0.90212509
2.1751612e-08,0.89879037
2.1944104e-08,0.89530528
2.2140033e-08,0.8916553
2.2339493e-08,0.88783492
2.254258e-08,0.88384277
2.2749392e-08,0.87965729
2.2960035e-08,0.87521682
2.3174614e-08,0.87012394
2.3393243e-08,0.86531112
2.3616036e-08,0.86091211
2.3843113e-08,0.85597853
2.40746e-08,0.85079028
2.4310625e-08,0.84544469
2.4551324e-08,0.84008103
2.4796837e-08,0.83485054
2.5047311e-08,0.8290099
2.5302895e-08,0.82290388
2.556375e-08,0.81712154
2.5830039e-08,0.81165958
2.6101934e-08,0.80689268
2.6379614e-08,0.80278509
2.6663266e-08,0.79970271
2.6953084e-08,0.79807594
2.7249272e-08,0.79833143
2.7552042e-08,0.79867795
2.7861615e-08,0.80199013
2.8178224e-08,0.81072374
2.8502112e-08,0.82431474
2.8833532e-08,0.84033678
2.917275e-08,0.85634569
2.9520045e-08,0.87617114
2.9875708e-08,0.89611221
3.0240046e-08,0.91561888
3.061338e-08,0.93667826
3.0996047e-08,0.95956572
3.1388402e-08,0.98326393
3.1790817e-08,1.0054531
3.2203685e-08,1.0286824
3.2627418e-08,1.052027
3.306245e-08,1.074469
3.350924e-08,1.0964089
3.3968271e-08,1.1150915
3.4440052e-08,1.1311207
3.4925123e-08,1.1451071
3.5424054e-08,1.1544773
3.5937446e-08,1.1611881
3.6465937e-08,1.1661726
3.7010205e-08,1.1666912
3.7570966e-08,1.1619269
3.8148981e-08,1.1545898
3.8745059e-08,1.1455816
3.936006e-08,1.1351954
3.9994899e-08,1.1267189
4.0650553e-08,1.1233612
4.1328062e-08,1.1245838
4.2028538e-08,1.1226327
4.2753168e-08,1.1133295
4.3503224e-08,1.1034403
4.4280067e-08,1.0924582
4.5085159e-08,1.0742562
4.5920069e-08,1.0552985
4.6786486e-08,1.0410119
4.7686226e-08,1.0283395
4.862125e-08,1.0165236
4.9593675e-08,1.0052265
5.0605791e-08,0.99420114
5.1660078e-08,0.98319204
5.2759229e-08,0.97214022
5.3906168e-08,0.96097557
5.5104083e-08,0.9494425
5.6356449e-08,0.93731146
5.7667064e-08,0.92443425
5.9040089e-08,0.91063891
6.0480091e-08,0.89573259
6.1992094e-08,0.87916097
6.7102267e-08,0.8260673
7.350247e-08,0.74582136
8.3402802e-08,0.69110704
9.2003087e-08,0.64958198
9.6403225e-08,0.60686449
1.04803563e-07,0.5358936
1.0670364e-07,0.55208393
1.13403836e-07,0.6340697
1.20004014e-07,0.66370242
1.24404201e-07,0.71222426
1.32004448e-07,0.80879241
1.4130476e-07,0.8591701
1.49405036e-07,0.86904031
1.74505895e-07,1.0315365
1.79597872e-07,1.0712365
1.84689943e-07,1.0982708
1.89781921e-07,1.1198012
